3495.35	51.5263
3494.08	53.5263
3492.81	52.2105
3491.53	51.2632
3490.26	58.7895
3488.99	63.8421
3487.71	46.3158
3486.44	62.4737
3485.17	52.2105
3483.89	56.2105
3482.62	56.6842
3481.34	72.4211
3480.06	51.2632
3478.79	62.1579
3477.51	59.2632
3476.24	79.4211
3474.96	75.6316
3473.68	63.2105
3472.4	65.8947
3471.13	70.5789
3469.85	83.2105
3468.57	52.3684
3467.29	77.1579
3466.01	97.3684
3464.73	83.6316
3463.45	91.4737
3462.17	92.0526
3460.89	88.9474
3459.61	99.5263
3458.33	106.105
3457.04	95.579
3455.76	116.842
3454.48	95.7895
3453.2	120.632
3451.91	108.474
3450.63	118.316
3449.35	103.105
3448.06	127.053
3446.78	131.105
3445.49	116.158
3444.21	106.368
3442.92	131.579
3441.64	133.737
3440.35	117.579
3439.07	123.737
3437.78	137.421
3436.49	117.789
3435.2	127.316
3433.92	119.316
3432.63	151.158
3431.34	144.947
3430.05	140.579
3428.76	131.895
3427.47	130.526
3426.18	139.895
3424.89	153.579
3423.6	147.895
3422.31	153.579
3421.02	148.737
3419.73	143.211
3418.44	143.789
3417.14	155.474
3415.85	166.789
3414.56	149.211
3413.27	170.105
3411.97	162
3410.68	153.579
3409.39	164
3408.09	182.842
3406.8	162.895
3405.5	168.105
3404.2	172.684
3402.91	184.632
3401.61	189.474
3400.32	171.368
3399.02	194.842
3397.72	183.211
3396.42	176.737
3395.13	172.316
3393.83	186.789
3392.53	181.579
3391.23	177.263
3389.93	196.263
3388.63	192.368
3387.33	178.737
3386.03	218.421
3384.73	190.579
3383.43	202.368
3382.13	184.263
3380.83	191.158
3379.53	196.947
3378.22	208.211
3376.92	197.684
3375.62	216.105
3374.32	200.526
3373.01	201.789
3371.71	221.211
3370.4	206
3369.1	210.947
3367.79	212.316
3366.49	219
3365.18	200.526
3363.88	225.842
3362.57	219.895
3361.26	233
3359.96	207.526
3358.65	218.789
3357.34	226.316
3356.03	212.474
3354.73	228.947
3353.42	223.368
3352.11	218.842
3350.8	235.105
3349.49	232.474
3348.18	225.789
3346.87	235.632
3345.56	227.737
3344.25	233.579
3342.93	233.895
3341.62	231.158
3340.31	240.263
3339	238.579
3337.69	243.632
3336.37	245.737
3335.06	251.684
3333.74	250.211
3332.43	261.421
3331.12	248.632
3329.8	258.105
3328.49	259.105
3327.17	244.842
3325.86	245.579
3324.54	263.632
3323.22	252.684
3321.91	261.263
3320.59	246.842
3319.27	251.947
3317.95	241.421
3316.63	277.158
3315.32	266.316
3314	273.263
3312.68	259
3311.36	263.053
3310.04	252.684
3308.72	262.895
3307.4	253.895
3306.08	264.895
3304.75	253.947
3303.43	269.789
3302.11	278.158
3300.79	292.053
3299.47	269.158
3298.14	280.789
3296.82	269.368
3295.5	278.579
3294.17	272.842
3292.85	276.105
3291.52	287.316
3290.2	293
3288.87	293.316
3287.55	291.526
3286.22	299.263
3284.89	306.211
3283.57	308.895
3282.24	319.632
3280.91	330.526
3279.58	311.684
3278.26	338.421
3276.93	320.211
3275.6	338.842
3274.27	366.842
3272.94	359.316
3271.61	364.474
3270.28	378.368
3268.95	380.526
3267.62	390.737
3266.29	389.316
3264.96	398.895
3263.62	408.053
3262.29	402.684
3260.96	407.263
3259.63	414.579
3258.29	409.158
3256.96	430.526
3255.62	437.526
3254.29	436.842
3252.95	429.579
3251.62	447.842
3250.28	450.053
3248.95	458.842
3247.61	466.474
3246.28	485.474
3244.94	452.368
3243.6	471.842
3242.26	487
3240.93	485.526
3239.59	468.947
3238.25	481.211
3236.91	499
3235.57	478.526
3234.23	488.316
3232.89	496.421
3231.55	480.684
3230.21	516.737
3228.87	478.053
3227.53	479.474
3226.19	501.789
3224.85	499.158
3223.5	494.632
3222.16	508.842
3220.82	486.474
3219.47	488.737
3218.13	511.684
3216.79	509.421
3215.44	505.684
3214.1	513.474
3212.75	514
3211.41	518.526
3210.06	526
3208.71	514
3207.37	514.526
3206.02	527.368
3204.67	527.632
3203.33	535.474
3201.98	523.158
3200.63	535.263
3199.28	530.316
3197.93	554.421
3196.58	551.947
3195.23	535
3193.88	535
3192.53	555.211
3191.18	545.421
3189.83	534.053
3188.48	560.947
3187.13	568.211
3185.78	565.474
3184.42	564.053
3183.07	562.316
3181.72	559.053
3180.36	555
3179.01	577.579
3177.66	554.368
3176.3	578.105
3174.95	594.105
3173.59	585.526
3172.24	575.842
3170.88	584.526
3169.52	573.474
3168.17	568.158
3166.81	596.842
3165.45	592.789
3164.1	584.105
3162.74	591.842
3161.38	588.053
3160.02	610.105
3158.66	610.053
3157.3	603.105
3155.94	617.263
3154.58	604
3153.22	596.737
3151.86	617.474
3150.5	612.737
3149.14	624.579
3147.78	617.947
3146.41	615.421
3145.05	616.053
3143.69	620.053
3142.32	632.895
3140.96	615.631
3139.6	622.105
3138.23	614.421
3136.87	624.947
3135.5	622.474
3134.14	624.579
3132.77	607.526
3131.41	633.211
3130.04	628.158
3128.67	625.158
3127.31	607.789
3125.94	621.421
3124.57	619.947
3123.2	589.474
3121.83	619.316
3120.47	624.684
3119.1	613.158
3117.73	628.263
3116.36	615
3114.99	626.158
3113.61	624.105
3112.24	611.895
3110.87	599.053
3109.5	640.737
3108.13	610.368
3106.76	609.526
3105.38	620.895
3104.01	630.684
3102.64	624.789
3101.26	616.105
3099.89	635.789
3098.51	610.421
3097.14	623
3095.76	633.421
3094.39	643.474
3093.01	607.526
3091.64	623.842
3090.26	615.579
3088.88	634.421
3087.5	615.158
3086.13	628.211
3084.75	630.579
3083.37	638.158
3081.99	620.105
3080.61	625.895
3079.23	621.895
3077.85	616.789
3076.47	623.421
3075.09	619.263
3073.71	660.105
3072.33	611.789
3070.95	627.579
3069.57	639.211
3068.18	623
3066.8	633.789
3065.42	624.053
3064.04	602.947
3062.65	615.053
3061.27	639.947
3059.88	637.421
3058.5	649.316
3057.11	626.263
3055.73	626.316
3054.34	608.579
3052.96	635.632
3051.57	633.105
3050.18	646.632
3048.8	631.053
3047.41	626.947
3046.02	631.158
3044.63	634.526
3043.24	642.105
3041.85	634.632
3040.46	641.947
3039.07	629.158
3037.68	637.789
3036.29	629.211
3034.9	635.737
3033.51	654.842
3032.12	657.21
3030.73	647.158
3029.34	646.211
3027.94	643.526
3026.55	646.895
3025.16	662.211
3023.76	669.263
3022.37	672.211
3020.97	660.368
3019.58	664.737
3018.18	678.526
3016.79	695.474
3015.39	685.842
3014	669.105
3012.6	677.368
3011.2	703.368
3009.81	692.211
3008.41	691.158
3007.01	709
3005.61	702.105
3004.21	686.789
3002.81	710.947
3001.41	716.211
3000.01	717.105
2998.61	722.737
2997.21	725.263
2995.81	740.474
2994.41	723.211
2993.01	731.263
2991.61	733.263
2990.21	747.684
2988.8	723.105
2987.4	740.947
2986	744.684
2984.59	740.368
2983.19	744.316
2981.78	768.211
2980.38	755.632
2978.97	760.263
2977.57	750.158
2976.16	756.211
2974.76	776.737
2973.35	762.79
2971.94	767.947
2970.54	781.263
2969.13	781.895
2967.72	791.158
2966.31	805.579
2964.9	793.211
2963.49	802.526
2962.08	804.368
2960.67	815.789
2959.26	814.526
2957.85	828.368
2956.44	791.737
2955.03	801.632
2953.62	825.263
2952.21	806.211
2950.8	816.579
2949.38	835.158
2947.97	826.632
2946.56	833.789
2945.14	842.263
2943.73	848.211
2942.31	847.211
2940.9	846.474
2939.48	842.421
2938.07	854.579
2936.65	856.368
2935.24	868
2933.82	850.895
2932.4	847.053
2930.98	856.421
2929.57	876.263
2928.15	877.684
2926.73	870.632
2925.31	879.474
2923.89	893.684
2922.47	890.789
2921.05	891.316
2919.63	902.368
2918.21	894.526
2916.79	902.632
2915.37	889.421
2913.95	919.526
2912.52	883.263
2911.1	914.632
2909.68	916.526
2908.26	901.737
2906.83	923.895
2905.41	921.158
2903.98	926.947
2902.56	924
2901.13	930.579
2899.71	925.526
2898.28	928
2896.86	930.158
2895.43	947.789
2894	945.895
2892.58	934.842
2891.15	941.947
2889.72	963.158
2888.29	957.579
2886.86	977.526
2885.44	955.105
2884.01	963.632
2882.58	985.842
2881.15	974.316
2879.72	964.263
2878.28	983.211
2876.85	973.368
2875.42	1001.05
2873.99	976.895
2872.56	995.526
2871.12	1000.53
2869.69	1024.05
2868.26	1015.95
2866.82	997.053
2865.39	1009.79
2863.96	1030.21
2862.52	1026.26
2861.09	1041.58
2859.65	1030.95
2858.21	1049.32
2856.78	1028.21
2855.34	1045.58
2853.9	1048.63
2852.47	1059.26
2851.03	1050.84
2849.59	1072.42
2848.15	1064.37
2846.71	1069.32
2845.27	1056.47
2843.83	1081.84
2842.39	1077.16
2840.95	1065.79
2839.51	1072.42
2838.07	1074.47
2836.63	1091.16
2835.19	1084.84
2833.75	1086.47
2832.3	1109.47
2830.86	1074.63
2829.42	1103.05
2827.97	1092.68
2826.53	1113.68
2825.09	1105.58
2823.64	1113.89
2822.2	1117.63
2820.75	1120.53
2819.3	1122.58
2817.86	1121.42
2816.41	1143.79
2814.96	1152.74
2813.52	1114.79
2812.07	1150.21
2810.62	1167.79
2809.17	1149.63
2807.72	1138.21
2806.27	1164.11
2804.82	1167.05
2803.38	1188.42
2801.92	1176.05
2800.47	1167.21
2799.02	1190.84
2797.57	1180.53
2796.12	1175.42
2794.67	1189.05
2793.22	1202.63
2791.76	1205.32
2790.31	1184.26
2788.86	1210.63
2787.4	1219.89
2785.95	1211
2784.49	1211.05
2783.04	1241.26
2781.58	1223.21
2780.13	1242.32
2778.67	1241.68
2777.21	1228.68
2775.76	1239.42
2774.3	1233.47
2772.84	1255.79
2771.38	1240.16
2769.92	1244.05
2768.47	1274.89
2767.01	1269.21
2765.55	1257.16
2764.09	1274.74
2762.63	1277.37
2761.17	1292.26
2759.71	1304.58
2758.24	1280.89
2756.78	1288.42
2755.32	1287.79
2753.86	1291.89
2752.39	1289.53
2750.93	1325.32
2749.47	1319.42
2748	1330.58
2746.54	1324.37
2745.07	1335.84
2743.61	1340.58
2742.14	1342.79
2740.68	1356.26
2739.21	1352
2737.75	1354.05
2736.28	1370.89
2734.81	1355.21
2733.34	1371.89
2731.88	1376.26
2730.41	1385.53
2728.94	1398.42
2727.47	1383.42
2726	1396.63
2724.53	1393.11
2723.06	1393.05
2721.59	1400.79
2720.12	1410.47
2718.65	1412.47
2717.17	1402.05
2715.7	1407.68
2714.23	1417.58
2712.76	1422
2711.28	1434.53
2709.81	1426.42
2708.34	1416.89
2706.86	1431.37
2705.39	1431.37
2703.91	1436.05
2702.44	1422.53
2700.96	1453.47
2699.48	1427.37
2698.01	1448.42
2696.53	1462.32
2695.05	1462
2693.58	1466.42
2692.1	1463.95
2690.62	1482.58
2689.14	1477
2687.66	1480.68
2686.18	1486.21
2684.7	1488.16
2683.22	1495.63
2681.74	1502.32
2680.26	1493.11
2678.78	1493.58
2677.3	1512.11
2675.81	1531.63
2674.33	1512.21
2672.85	1510.89
2671.36	1528.58
2669.88	1545.16
2668.4	1504.74
2666.91	1543.42
2665.43	1559.16
2663.94	1529.68
2662.46	1557.16
2660.97	1542.26
2659.48	1595.84
2658	1604.95
2656.51	1589.05
2655.02	1585.26
2653.53	1608
2652.05	1601.58
2650.56	1612.21
2649.07	1631
2647.58	1615.21
2646.09	1633.89
2644.6	1629.53
2643.11	1646.47
2641.62	1651.47
2640.13	1652.42
2638.63	1655.63
2637.14	1663.79
2635.65	1664.21
2634.16	1684.11
2632.66	1666.16
2631.17	1674.58
2629.68	1710.95
2628.18	1696.89
2626.69	1681.53
2625.19	1701.53
2623.7	1712.47
2622.2	1717.16
2620.7	1720.11
2619.21	1724.26
2617.71	1734.74
2616.21	1712.32
2614.72	1727.58
2613.22	1736.58
2611.72	1739.79
2610.22	1745.63
2608.72	1745.58
2607.22	1776.05
2605.72	1763.95
2604.22	1752.05
2602.72	1777.42
2601.22	1778.84
2599.72	1770.89
2598.22	1784.47
2596.71	1799.95
2595.21	1799.58
2593.71	1830
2592.2	1808.84
2590.7	1833.32
2589.2	1846.21
2587.69	1834.89
2586.19	1844.68
2584.68	1873.53
2583.18	1846.26
2581.67	1848.26
2580.16	1872.63
2578.66	1884.26
2577.15	1856.05
2575.64	1879.89
2574.13	1905.58
2572.63	1901
2571.12	1906.74
2569.61	1910.74
2568.1	1907.74
2566.59	1918.79
2565.08	1912.21
2563.57	1935.68
2562.06	1925.63
2560.55	1930.53
2559.03	1952.89
2557.52	1947.42
2556.01	1923.95
2554.5	1928.47
2552.98	1946.84
2551.47	1948.89
2549.96	1955.89
2548.44	1976.42
2546.93	1963.32
2545.41	1998.84
2543.9	1976
2542.38	1982.11
2540.86	1988.84
2539.35	2013.89
2537.83	1971.63
2536.31	2005.74
2534.79	2001.47
2533.28	2014.21
2531.76	2007.16
2530.24	2007.89
2528.72	2015.16
2527.2	2028.63
2525.68	2031.89
2524.16	2031.53
2522.64	2025.11
2521.12	2033.68
2519.59	2046.9
2518.07	2052.53
2516.55	2052.16
2515.03	2039.84
2513.5	2064.16
2511.98	2084.42
2510.46	2077.53
2508.93	2069.53
2507.41	2064.05
2505.88	2086
2504.36	2077.79
2502.83	2067.42
2501.3	2095.58
2499.78	2109.58
2498.25	2107.32
2496.72	2127.21
2495.2	2126.58
2493.67	2134.74
2492.14	2156
2490.61	2121.58
2489.08	2147.63
2487.55	2142.21
2486.02	2155.05
2484.49	2138.63
2482.96	2153.79
2481.43	2147.16
2479.9	2161.11
2478.36	2189.42
2476.83	2155.37
2475.3	2179.63
2473.77	2165.32
2472.23	2186.89
2470.7	2199.16
2469.16	2202.21
2467.63	2220.11
2466.09	2204.58
2464.56	2215.95
2463.02	2235.05
2461.49	2227.79
2459.95	2222.11
2458.41	2218.95
2456.87	2260.84
2455.34	2251
2453.8	2239.16
2452.26	2260.05
2450.72	2263.68
2449.18	2262.79
2447.64	2274.47
2446.1	2274.63
2444.56	2326.32
2443.02	2311.42
2441.48	2319.74
2439.94	2314.84
2438.39	2331.74
2436.85	2332.79
2435.31	2302.11
2433.77	2332.58
2432.22	2369.53
2430.68	2375.21
2429.13	2361.84
2427.59	2395.58
2426.04	2390.37
2424.5	2398.58
2422.95	2384.47
2421.41	2427.21
2419.86	2443.47
2418.31	2395.68
2416.76	2430.11
2415.22	2440.32
2413.67	2449.53
2412.12	2443.95
2410.57	2469.21
2409.02	2461.11
2407.47	2462.47
2405.92	2487.21
2404.37	2475.16
2402.82	2481.95
2401.27	2488.53
2399.71	2496.16
2398.16	2518
2396.61	2513.79
2395.06	2486.37
2393.5	2541.37
2391.95	2521.32
2390.4	2539
2388.84	2522
2387.29	2541.47
2385.73	2550.32
2384.17	2574.74
2382.62	2552.37
2381.06	2564
2379.51	2588.53
2377.95	2581
2376.39	2577.79
2374.83	2576.42
2373.27	2583.53
2371.72	2586.32
2370.16	2617.84
2368.6	2629.32
2367.04	2633.32
2365.48	2623.53
2363.92	2647.32
2362.35	2658.74
2360.79	2672.63
2359.23	2675.21
2357.67	2693.68
2356.1	2673.68
2354.54	2694.9
2352.98	2715.74
2351.41	2713
2349.85	2733
2348.29	2735.53
2346.72	2751.84
2345.15	2765.84
2343.59	2757.95
2342.02	2772.42
2340.46	2798.11
2338.89	2815.74
2337.32	2805.58
2335.75	2806
2334.18	2806.58
2332.62	2822.53
2331.05	2856.47
2329.48	2855.89
2327.91	2872.63
2326.34	2877.9
2324.77	2897.53
2323.2	2912.9
2321.63	2927.95
2320.05	2913.79
2318.48	2907.05
2316.91	2930.95
2315.34	2959.47
2313.76	2952.89
2312.19	2947.05
2310.61	2960.58
2309.04	3012.37
2307.46	2987.11
2305.89	3011.16
2304.31	2993.58
2302.74	3007.21
2301.16	3004.16
2299.58	3035.95
2298.01	3051.95
2296.43	3053
2294.85	3057.63
2293.27	3064.05
2291.69	3074.32
2290.11	3093.95
2288.53	3118.47
2286.95	3127.84
2285.37	3117.63
2283.79	3148.32
2282.21	3141.26
2280.63	3156.74
2279.05	3165.11
2277.47	3211.89
2275.88	3212.89
2274.3	3211.84
2272.72	3250.26
2271.13	3226
2269.55	3227.32
2267.96	3255
2266.38	3297.21
2264.79	3285.74
2263.21	3307.79
2261.62	3311.42
2260.03	3334.63
2258.44	3342.53
2256.86	3335.89
2255.27	3373.79
2253.68	3365.47
2252.09	3378.37
2250.5	3426.32
2248.91	3419.74
2247.32	3426.84
2245.73	3427.42
2244.14	3476.21
2242.55	3460.47
2240.96	3482.32
2239.37	3480.84
2237.77	3515
2236.18	3519.37
2234.59	3533.47
2232.99	3552.58
2231.4	3518.32
2229.81	3585.32
2228.21	3590.95
2226.62	3596.26
2225.02	3621.84
2223.42	3656.53
2221.83	3632.32
2220.23	3692.89
2218.63	3687.21
2217.04	3679
2215.44	3708.89
2213.84	3697.42
2212.24	3711.32
2210.64	3739.79
2209.04	3773
2207.44	3767.47
2205.84	3796.89
2204.24	3817.79
2202.64	3861.74
2201.04	3828.21
2199.44	3884.26
2197.83	3911.58
2196.23	3944.37
2194.63	3925.63
2193.03	3938.84
2191.42	3934.68
2189.82	3977
2188.21	3993.37
2186.61	3989.84
2185	4024.63
2183.4	4010.58
2181.79	4055.63
2180.18	4097.05
2178.57	4076.53
2176.97	4067.26
2175.36	4141.95
2173.75	4119.89
2172.14	4149.26
2170.53	4152.21
2168.92	4198.05
2167.31	4179.32
2165.7	4220.68
2164.09	4223.11
2162.48	4225.21
2160.87	4249.84
2159.26	4239.74
2157.65	4274.26
2156.03	4275.26
2154.42	4285.58
2152.81	4313.26
2151.19	4330.53
2149.58	4318.1
2147.96	4327.95
2146.35	4334.16
2144.73	4334.37
2143.12	4366.53
2141.5	4368.16
2139.88	4370.21
2138.26	4388.32
2136.65	4386.16
2135.03	4397.79
2133.41	4429.53
2131.79	4447.95
2130.17	4434.26
2128.55	4453.42
2126.93	4453.58
2125.31	4507
2123.69	4476.47
2122.07	4518.26
2120.45	4503.58
2118.83	4549.47
2117.2	4562.47
2115.58	4611.58
2113.96	4601.68
2112.33	4633.16
2110.71	4624.68
2109.08	4649.63
2107.46	4652.74
2105.83	4697.53
2104.21	4697.58
2102.58	4722.47
2100.96	4739.42
2099.33	4741.32
2097.7	4774.89
2096.07	4743.16
2094.45	4804.69
2092.82	4795.79
2091.19	4818.58
2089.56	4878.58
2087.93	4833.21
2086.3	4861.21
2084.67	4897.68
2083.04	4887
2081.41	4907.21
2079.77	4928.32
2078.14	4915.47
2076.51	4965.05
2074.88	4968.53
2073.24	4966.95
2071.61	4997.58
2069.97	4992.74
2068.34	5029.84
2066.7	5033.89
2065.07	5053.26
2063.43	5055.74
2061.8	5097.37
2060.16	5109.16
2058.52	5120.84
2056.89	5140.26
2055.25	5147.95
2053.61	5148.63
2051.97	5174
2050.33	5154.37
2048.69	5199.89
2047.05	5193.11
2045.41	5222.42
2043.77	5244.74
2042.13	5267.58
2040.49	5261.74
2038.85	5273.69
2037.2	5266.26
2035.56	5295.32
2033.92	5304.58
2032.27	5313.9
2030.63	5351.53
2028.99	5318.16
2027.34	5411.42
2025.7	5334.84
2024.05	5359.05
2022.4	5406.68
2020.76	5399.58
2019.11	5437.16
2017.46	5409.95
2015.82	5436.89
2014.17	5448.05
2012.52	5427.74
2010.87	5478.47
2009.22	5488.21
2007.57	5488.84
2005.92	5496.79
2004.27	5482.1
2002.62	5495.58
2000.97	5502.58
1999.31	5512.32
1997.66	5515.58
1996.01	5569.37
1994.36	5569.58
1992.7	5553.74
1991.05	5592.58
1989.39	5606.9
1987.74	5614.53
1986.09	5657.58
1984.43	5620.68
1982.77	5663
1981.12	5683.42
1979.46	5696.37
1977.8	5766.05
1976.15	5709.58
1974.49	5735
1972.83	5740.9
1971.17	5749.95
1969.51	5784.05
1967.85	5816.26
1966.19	5827
1964.53	5813.05
1962.87	5836.53
1961.21	5850.95
1959.55	5860.21
1957.88	5857.84
1956.22	5911.53
1954.56	5903.21
1952.9	5960.63
1951.23	5920.89
1949.57	5943.68
1947.9	5967.37
1946.24	5979.11
1944.57	5972.42
1942.91	6015.47
1941.24	5998.32
1939.57	6027.11
1937.91	6041.79
1936.24	6052.63
1934.57	6066.32
1932.9	6095.32
1931.23	6086.53
1929.56	6140.63
1927.89	6100.21
1926.23	6116.63
1924.55	6164.89
1922.88	6157.89
1921.21	6173.32
1919.54	6203.89
1917.87	6182.11
1916.2	6179.74
1914.52	6192.69
1912.85	6251.53
1911.18	6276.16
1909.5	6238.95
1907.83	6280.63
1906.15	6247.95
1904.48	6304
1902.8	6318.68
1901.13	6338.42
1899.45	6347.63
1897.77	6342.84
1896.09	6374.58
1894.42	6386.32
1892.74	6405.1
1891.06	6401.95
1889.38	6463.53
1887.7	6467
1886.02	6472.1
1884.34	6466.16
1882.66	6491.05
1880.98	6527.9
1879.3	6540.74
1877.61	6544.95
1875.93	6572.58
1874.25	6607
1872.56	6608.74
1870.88	6630.05
1869.2	6627.9
1867.51	6648.53
1865.83	6669.84
1864.14	6681.32
1862.46	6683.42
1860.77	6712.63
1859.08	6688.32
1857.4	6725.68
1855.71	6747.84
1854.02	6723.53
1852.33	6738.42
1850.64	6770
1848.95	6798.63
1847.26	6838.37
1845.57	6819.16
1843.88	6846.1
1842.19	6816.68
1840.5	6848.26
1838.81	6832.53
1837.12	6860.53
1835.43	6878.63
1833.73	6866.26
1832.04	6845.11
1830.34	6909.68
1828.65	6913.53
1826.96	6909.21
1825.26	6931.16
1823.57	6910.42
1821.87	6922.79
1820.17	6922
1818.48	6959.53
1816.78	7012.21
1815.08	6996.21
1813.38	7010
1811.69	7035.32
1809.99	7045.63
1808.29	7056.53
1806.59	7087.84
1804.89	7126.11
1803.19	7135.37
1801.49	7162.63
1799.78	7173.79
1798.08	7219.53
1796.38	7261.95
1794.68	7274.16
1792.97	7310.21
1791.27	7337
1789.57	7402.58
1787.86	7405.26
1786.16	7397.74
1784.45	7435.9
1782.75	7470.26
1781.04	7456
1779.34	7501.37
1777.63	7505.05
1775.92	7559.74
1774.21	7571.26
1772.51	7619
1770.8	7586.26
1769.09	7595.26
1767.38	7687.53
1765.67	7663.95
1763.96	7657
1762.25	7695.74
1760.54	7689
1758.82	7722.79
1757.11	7716.42
1755.4	7729.05
1753.69	7769.47
1751.97	7768.63
1750.26	7768.53
1748.55	7788.42
1746.83	7799.79
1745.12	7808
1743.4	7851.42
1741.69	7866.05
1739.97	7872.69
1738.25	7881.68
1736.54	7868.58
1734.82	7884.16
1733.1	7872.47
1731.38	7919.26
1729.66	7960.89
1727.94	7963
1726.22	8014.95
1724.5	8052.84
1722.78	8068.37
1721.06	8066.47
1719.34	8081.84
1717.62	8047.84
1715.9	8073.26
1714.18	8127.84
1712.45	8094.42
1710.73	8134.21
1709	8145.79
1707.28	8124.58
1705.56	8203.05
1703.83	8184.84
1702.11	8190
1700.38	8202.05
1698.65	8217.47
1696.93	8248.89
1695.2	8255.42
1693.47	8259.47
1691.74	8297
1690.01	8302.84
1688.28	8319.95
1686.55	8319.42
1684.83	8354.9
1683.09	8363.21
1681.36	8390.84
1679.63	8442.32
1677.9	8416.47
1676.17	8433.37
1674.44	8468.58
1672.7	8447.63
1670.97	8496.53
1669.24	8514.42
1667.5	8544.68
1665.77	8585.63
1664.03	8645.21
1662.3	8587.63
1660.56	8670.74
1658.83	8680.95
1657.09	8750.31
1655.35	8748.63
1653.61	8784
1651.88	8778.47
1650.14	8793.26
1648.4	8849
1646.66	8839.26
1644.92	8843
1643.18	8886.42
1641.44	8935.26
1639.7	8955.53
1637.96	8937.58
1636.22	8970.79
1634.47	9022.95
1632.73	9021.26
1630.99	9072.37
1629.24	9129.68
1627.5	9160.79
1625.75	9170.42
1624.01	9216.32
1622.26	9252.84
1620.52	9274.16
1618.77	9283.42
1617.03	9309.37
1615.28	9340.42
1613.53	9334.53
1611.78	9359.32
1610.04	9349.42
1608.29	9407.32
1606.54	9424.1
1604.79	9459.26
1603.04	9414.11
1601.29	9431.68
1599.54	9450.95
1597.78	9447.32
1596.03	9431.37
1594.28	9467.16
1592.53	9419.26
1590.77	9386.53
1589.02	9425.47
1587.27	9413.69
1585.51	9410.32
1583.76	9422.16
1582	9434.37
1580.25	9384.42
1578.49	9387.9
1576.73	9439.37
1574.98	9418.74
1573.22	9417.58
1571.46	9412.32
1569.7	9400.69
1567.94	9395.26
1566.19	9404.32
1564.43	9372.47
1562.67	9387.89
1560.91	9439.11
1559.14	9395.89
1557.38	9410.95
1555.62	9449.84
1553.86	9449.37
1552.1	9484.58
1550.33	9468.84
1548.57	9460
1546.81	9487.68
1545.04	9534.53
1543.28	9527.21
1541.51	9549.11
1539.75	9588.79
1537.98	9580.74
1536.21	9623.95
1534.45	9599.63
1532.68	9670.21
1530.91	9696.74
1529.14	9735.79
1527.37	9776.84
1525.6	9776.05
1523.83	9769.95
1522.06	9848
1520.29	9883.68
1518.52	9949.16
1516.75	9951.26
1514.98	9952.11
1513.21	10049.7
1511.43	10038.3
1509.66	10036.7
1507.89	10059.4
1506.11	10083
1504.34	10129.8
1502.57	10133.3
1500.79	10170.2
1499.01	10194.5
1497.24	10157
1495.46	10239.3
1493.68	10186.9
1491.91	10206.4
1490.13	10216.6
1488.35	10224.6
1486.57	10212.9
1484.79	10235.9
1483.01	10246.8
1481.23	10259.6
1479.45	10227.8
1477.67	10223.5
1475.89	10275.1
1474.11	10280.2
1472.32	10300.1
1470.54	10273.1
1468.76	10273.1
1466.98	10267.6
1465.19	10267.8
1463.41	10272.6
1461.62	10241.5
1459.84	10349.6
1458.05	10305.6
1456.26	10331.4
1454.48	10400.9
1452.69	10392.5
1450.9	10460.5
1449.11	10464.3
1447.33	10521.4
1445.54	10525.6
1443.75	10538.5
1441.96	10509.6
1440.17	10518.9
1438.38	10542
1436.58	10558.3
1434.79	10595.6
1433	10642.9
1431.21	10666.5
1429.42	10662.9
1427.62	10700.1
1425.83	10744.5
1424.03	10740.9
1422.24	10824.1
1420.44	10809.5
1418.65	10831.1
1416.85	10872.8
1415.06	10922.2
1413.26	10954.5
1411.46	10953
1409.66	10956.9
1407.87	10963.3
1406.07	10999.1
1404.27	10966.2
1402.47	11008.7
1400.67	11002.7
1398.87	10992.7
1397.07	10975.6
1395.27	11011.1
1393.46	11003.5
1391.66	11007.6
1389.86	11029.8
1388.06	11091.5
1386.25	11067.3
1384.45	11113.2
1382.64	11069.1
1380.84	11080.2
1379.03	11120.4
1377.23	11119.2
1375.42	11140.1
1373.62	11150.1
1371.81	11197.8
1370	11246.6
1368.19	11192.6
1366.38	11249.7
1364.58	11292.7
1362.77	11334.9
1360.96	11348.8
1359.15	11428.7
1357.33	11451.9
1355.52	11465.7
1353.71	11467.6
1351.9	11545.3
1350.09	11566.3
1348.27	11642.7
1346.46	11644.6
1344.65	11708.1
1342.83	11762.9
1341.02	11776.3
1339.2	11789.6
1337.39	11844.5
1335.57	11766.5
1333.76	11877.7
1331.94	11862.7
1330.12	11882.6
1328.3	11899.5
1326.48	11947.5
1324.67	11983.3
1322.85	12025.7
1321.03	11941.4
1319.21	12015.8
1317.39	12012.1
1315.57	12000.5
1313.74	12024.3
1311.92	12071.9
1310.1	12009.1
1308.28	12001.2
1306.45	12087.6
1304.63	12006.8
1302.81	12076.2
1300.98	12070.3
1299.16	12095.5
1297.33	12125.9
1295.51	12091.6
1293.68	12137.7
1291.85	12125.9
1290.02	12167.8
1288.2	12169.6
1286.37	12215.3
1284.54	12295.3
1282.71	12271.9
1280.88	12300.4
1279.05	12328.6
1277.22	12321.9
1275.39	12295.3
1273.56	12362.3
1271.73	12369.2
1269.89	12388.3
1268.06	12364.6
1266.23	12323.8
1264.4	12426.1
1262.56	12404.2
1260.73	12451.3
1258.89	12458.3
1257.06	12470.1
1255.22	12485.1
1253.38	12524.6
1251.55	12579.7
1249.71	12573.9
1247.87	12576.8
1246.03	12554.1
1244.2	12661.7
1242.36	12622.8
1240.52	12664.5
1238.68	12729.3
1236.84	12667.4
1235	12692.7
1233.16	12746.7
1231.31	12724.1
1229.47	12762.8
1227.63	12725.6
1225.79	12723
1223.94	12761.4
1222.1	12742.8
1220.25	12766.2
1218.41	12746.3
1216.56	12785.8
1214.72	12738.9
1212.87	12774.1
1211.02	12762.1
1209.18	12751.1
1207.33	12805.2
1205.48	12835
1203.63	12791.8
1201.78	12828.7
1199.93	12868.6
1198.08	12855.3
1196.23	12813.3
1194.38	12876.3
1192.53	12822.2
1190.68	12940.2
1188.83	12924.7
1186.98	12931.4
1185.12	12938.2
1183.27	12938.4
1181.41	12964.1
1179.56	12996.9
1177.71	13056.9
1175.85	13087.4
1173.99	13168.6
1172.14	13141.3
1170.28	13172.5
1168.42	13205.3
1166.57	13243.8
1164.71	13241.4
1162.85	13268.3
1160.99	13326.2
1159.13	13290.8
1157.27	13256.9
1155.41	13394.2
1153.55	13398.7
1151.69	13431.1
1149.83	13433.3
1147.97	13434.8
1146.1	13486.2
1144.24	13393.3
1142.38	13423.9
1140.51	13419.5
1138.65	13461.7
1136.78	13441.4
1134.92	13472.6
1133.05	13461.7
1131.18	13416.5
1129.32	13455.1
1127.45	13464.3
1125.58	13437.9
1123.71	13423.6
1121.85	13381.4
1119.98	13482.2
1118.11	13434.1
1116.24	13430.4
1114.37	13424.8
1112.5	13415.1
1110.62	13400.1
1108.75	13418.3
1106.88	13381.7
1105.01	13444.1
1103.13	13465.2
1101.26	13467.1
1099.39	13503.9
1097.51	13518.8
1095.64	13517.1
1093.76	13568.5
1091.89	13585.2
1090.01	13581.4
1088.13	13674.6
1086.25	13692.8
1084.38	13741.1
1082.5	13778.8
1080.62	13838.7
1078.74	13857.2
1076.86	13856.2
1074.98	13918.4
1073.1	13921.6
1071.22	13945.2
1069.34	13904.5
1067.45	13991.3
1065.57	14003.7
1063.69	14041.9
1061.81	14064.3
1059.92	14054.4
1058.04	14106.8
1056.15	14105.4
1054.27	14199.7
1052.38	14250.8
1050.5	14204.2
1048.61	14306.6
1046.72	14297.9
1044.83	14371.5
1042.95	14361.7
1041.06	14325.9
1039.17	14335.2
1037.28	14383.2
1035.39	14437.5
1033.5	14389.6
1031.61	14493.7
1029.72	14487.2
1027.82	14464.9
1025.93	14466.3
1024.04	14535.8
1022.15	14472.4
1020.25	14486.3
1018.36	14537.8
1016.46	14561.4
1014.57	14682.2
1012.67	14636
1010.78	14651.2
1008.88	14704.5
1006.99	14771.5
1005.09	14734.1
1003.19	14779.4
1001.29	14904.8
999.393	14892
997.494	14907.1
995.595	14989.1
993.694	15016.3
991.793	15087.5
989.893	15098.7
987.991	15167.3
986.089	15114.5
984.186	15157.1
982.284	15246.5
980.38	15250.1
978.477	15248.6
976.572	15246.3
974.667	15302.4
972.762	15326.7
970.856	15337.3
968.95	15303.6
967.043	15382
965.136	15414
963.229	15466.4
961.32	15505.6
959.412	15540.8
957.503	15573.1
955.594	15612.1
953.683	15601.2
951.773	15654.5
949.862	15666.6
947.951	15678.6
946.039	15746.8
944.127	15772.9
942.214	15830.5
940.301	15805.6
938.387	15861.6
936.472	15838.1
934.558	15945.7
932.643	15946.3
930.727	15965.2
928.811	16037.1
926.895	16044.8
924.978	16088.3
923.06	16177.2
921.142	16188.8
919.224	16215.9
917.305	16263.6
915.386	16188.2
913.466	16265.6
911.545	16304.3
909.625	16384.9
907.703	16414.3
905.782	16414.8
903.859	16482.9
901.937	16531.5
900.014	16565.5
898.09	16566.3
896.166	16624.1
894.241	16598.2
892.316	16628.8
890.391	16628.4
888.465	16671.1
886.539	16650
884.612	16719.2
882.685	16746.5
880.756	16796.7
878.828	16777.9
876.899	16824.2
874.97	16749.6
873.04	16778.4
871.11	16746.2
869.179	16856.3
867.248	16814.1
865.316	16829.3
863.384	16898.4
861.452	16907.1
859.519	16883.4
857.585	16910.5
855.651	16862.2
853.717	16926.2
851.782	16899.5
849.846	16919
847.91	16909.2
845.974	16974.9
844.037	16987.6
842.099	17058.1
840.162	17074.5
838.224	17050.5
836.284	17036.6
834.345	17075.5
832.406	17050.7
830.466	16995.3
828.525	17100.9
826.584	17136.6
824.642	17110.5
822.7	17036.1
820.757	17073.7
818.815	17136.8
816.871	17160.4
814.927	17109.1
812.982	17224.3
811.037	17281.3
809.092	17159.3
807.146	17259.3
805.2	17288.7
803.253	17284.1
801.306	17340
799.358	17299.9
797.41	17295.5
795.46	17354
793.511	17353.3
791.562	17395.4
789.611	17426.2
787.66	17489.1
785.709	17512
783.758	17479.6
781.806	17536
779.853	17649.5
777.9	17621.7
775.946	17634.5
773.992	17679.3
772.038	17656.1
770.083	17651.7
768.127	17682.5
766.171	17710.6
764.215	17723.2
762.258	17729.1
760.3	17798.7
758.342	17813.8
756.385	17786.8
754.425	17829.4
752.466	17831.3
750.506	17817.5
748.546	18004
746.586	17951.2
744.624	17979.1
742.662	17998.1
740.7	18025.9
738.737	18096.9
736.774	18106.8
734.81	18160.3
732.846	18214.2
730.881	18107.4
728.916	18200.2
726.951	18223.3
724.984	18279.2
723.018	18296.7
721.051	18240.8
719.084	18282
717.116	18309.7
715.147	18317.1
713.178	18364.1
711.209	18447.5
709.239	18365.2
707.268	18433.2
705.297	18440.3
703.327	18406.8
701.354	18498.6
699.382	18524.7
697.409	18432.1
695.436	18429.5
693.462	18397.8
691.488	18470.2
689.513	18467.6
687.538	18476.3
685.562	18371.4
683.586	18345.4
681.609	18406.1
679.632	18473.1
677.654	18496.2
675.676	18492.1
673.698	18539.3
671.718	18576.4
669.739	18578.5
667.759	18597.2
665.778	18592.8
663.797	18649.4
661.815	18671.1
659.834	18733
657.851	18700.3
655.868	18751.1
653.884	18790.4
651.9	18880.2
649.916	18926.3
647.931	18978.9
645.946	18995.6
643.959	19070.4
641.973	19176.2
639.986	19194.5
637.999	19209.5
636.011	19274.6
634.023	19257.1
632.034	19303.4
630.044	19386.8
628.054	19379.7
626.064	19428.3
624.073	19479.3
622.082	19502.7
620.09	19570.5
618.098	19525.1
616.105	19578.1
614.112	19634.8
612.118	19660.4
610.124	19656.7
608.129	19728.1
606.134	19748.8
604.138	19761
602.142	19765.9
600.145	19858.8
598.148	19891.7
596.151	19931.6
594.152	19930.9
592.154	19820.6
590.154	19944.8
588.155	19939.7
586.154	19946.6
584.154	19958
582.153	20009.4
580.152	20064.3
578.15	20122.9
576.147	20099.2
574.144	20152.3
572.141	20161.8
570.136	20251.3
568.132	20236.3
566.127	20255.8
564.121	20238.1
562.116	20191.8
560.109	20219.7
558.102	20317
556.094	20222.6
554.086	20258.6
552.078	20250.1
550.069	20256.8
548.06	20330.9
546.049	20341.7
544.039	20355.9
542.028	20260.2
540.017	20272.7
538.005	20316.9
535.993	20391.3
533.98	20410.9
531.966	20412.4
529.952	20457.6
527.938	20415.8
525.923	20481.9
523.907	20455.4
521.892	20489.3
519.876	20545.2
517.858	20528.8
515.841	20506.2
513.823	20621.3
511.805	20601.6
509.786	20675.4
507.767	20675.1
505.747	20750.3
503.727	20768.8
501.706	20875.1
499.684	20890.9
497.663	20905.1
495.64	20962.7
493.618	20908.7
491.594	20924.1
489.571	20986.5
487.547	20977.1
485.522	20947.3
483.497	20978.2
481.471	21026.3
479.445	20933.4
477.418	20846.8
475.391	20920.6
473.362	20968.2
471.334	20905.8
469.306	20958.4
467.276	20952.7
465.247	20968.2
463.216	20961.8
461.186	20946.1
459.154	20947
457.122	21015.8
455.091	20992.7
453.058	20977.8
451.025	21023.1
448.991	20988.3
446.957	21030.7
444.922	21057.1
442.887	21092.9
440.851	21089.5
438.814	21073
436.778	21082.8
434.741	21095.5
432.703	21134.2
430.665	21157.3
428.627	21098.5
426.587	21185.1
424.547	21164.4
422.507	21201.8
420.466	21272.7
418.425	21192.2
416.384	21263.7
414.341	21273.4
412.298	21289.3
410.256	21306.7
408.211	21350.1
406.167	21418.7
404.122	21474.2
402.078	21409.1
400.031	21396
397.986	21359.2
395.939	21382.9
393.892	21389.2
391.844	21458.9
389.796	21377.8
387.747	21349.1
385.698	21370.2
383.648	21336.5
381.597	21332.6
379.547	21360.9
377.495	21327.4
375.444	21310.4
373.392	21313.2
371.339	21258.9
369.286	21232.5
367.232	21232.3
365.178	21125.6
363.123	21070.9
361.068	21056.7
359.012	20900.8
356.956	20947.3
354.898	20871.6
352.841	20928.2
350.783	20893.8
348.726	20785.4
346.666	20865.7
344.607	20845.6
342.548	20879.5
340.487	20788.4
338.426	20956.2
336.365	20928.1
334.303	20962.9
332.241	20943.8
330.178	20991.1
328.115	21019.6
326.05	21015.1
323.986	20991.1
321.922	20967.1
319.856	21059.1
317.79	21022.9
315.724	21012.7
313.657	20979.1
311.59	21129.6
309.522	20989.4
307.454	20997.4
305.385	21011.3
303.315	20914.4
301.245	20920.1
299.175	20903.2
297.104	20854.1
295.032	20866.6
292.96	20789.2
290.888	20792.6
288.815	20697.1
286.741	20706.1
284.668	20671.2
282.593	20606.6
280.518	20657.4
278.443	20706.6
276.367	20708.4
274.29	20698.5
272.213	20779.9
270.135	20774.9
268.058	20824
265.979	20908.9
263.9	20917.4
261.82	20918.7
259.74	20965.7
257.66	21019.7
255.578	21010.1
253.497	21121.9
251.415	21071.6
249.331	21071.5
247.248	21095.2
245.165	21164.5
243.081	21203.3
240.997	21197.9
238.911	21137.7
236.826	21178.4
234.739	21109.1
232.653	21126.8
230.565	21110.9
228.477	21070.9
226.389	21034.6
224.3	21058.7
222.211	21036.6
220.121	20970.7
218.031	20795
215.94	20823.5
213.848	20770.6
211.757	20690.1
209.664	20702.5
207.572	20594.1
205.479	20558.7
203.384	20515.9
201.29	20467.3
199.195	20463.9
197.1	20436
195.003	20443.5
192.907	20414.6
190.81	20414.9
188.712	20516.8
186.615	20519.2
184.516	20515.3
182.417	20645
180.317	20768.7
178.217	20815.5
176.117	20986.2
174.016	21046.5
171.914	21111.2
169.812	21230.1
167.71	21248.4
165.606	21388.2
163.503	21479.3
161.398	21489.9
159.293	21551.2
157.188	21496.1
155.083	21495.1
152.976	21484.7
150.87	21443.2
148.763	21430.2
146.655	21332.4
144.546	21249.7
142.438	21266.5
140.328	21293.2
138.218	21262
136.108	21346.9
133.997	21419.5
131.886	21515.9
129.773	21615.6
127.661	21735
125.548	21857.8
123.435	21947.8
121.321	22025.5
119.207	22014.4
117.091	21974.8
114.975	22006.4
112.86	21903.6
110.743	22014.4
108.626	21863.5
106.508	21815.1
104.39	21652
102.272	21508.3
100.152	21400.1
98.0327	21170.2
95.9117	20770.7
93.791	20351.7
91.6705	19601.2
89.5484	18340.9
87.4255	16539.4
85.3029	14292.1
