3495.35	22.8421
3494.08	41.6316
3492.81	54.7368
3491.53	28.3684
3490.26	47.0526
3488.99	39.3684
3487.71	64.3684
3486.44	53.0526
3485.17	57
3483.89	44.421
3482.62	50.2632
3481.34	35.7368
3480.06	70
3478.79	60.4737
3477.51	55.8947
3476.24	66.1579
3474.96	39.4737
3473.68	73.7369
3472.4	55.3158
3471.13	72.1053
3469.85	63.5263
3468.57	85.5263
3467.29	89.7895
3466.01	77.3684
3464.73	59.5789
3463.45	65.8421
3462.17	88.9474
3460.89	82.7368
3459.61	73.2105
3458.33	74.6842
3457.04	80
3455.76	75.1579
3454.48	90.5263
3453.2	93.1053
3451.91	103.053
3450.63	108.263
3449.35	97.3684
3448.06	83.6316
3446.78	100.368
3445.49	102.684
3444.21	106.842
3442.92	85.1053
3441.64	105.526
3440.35	127.053
3439.07	121.211
3437.78	124.526
3436.49	108.632
3435.2	121.421
3433.92	110.632
3432.63	134
3431.34	110.684
3430.05	139.579
3428.76	118.158
3427.47	121.368
3426.18	137
3424.89	135.211
3423.6	121.947
3422.31	124.368
3421.02	122
3419.73	133.789
3418.44	133.842
3417.14	144.895
3415.85	150.632
3414.56	141.474
3413.27	144.789
3411.97	159.263
3410.68	135.895
3409.39	132.842
3408.09	149.947
3406.8	155.737
3405.5	152.105
3404.2	159.789
3402.91	156.158
3401.61	163.895
3400.32	160.737
3399.02	159.526
3397.72	147.632
3396.42	169
3395.13	167.263
3393.83	164.211
3392.53	171.526
3391.23	169.053
3389.93	173.737
3388.63	181.632
3387.33	164.053
3386.03	156.105
3384.73	177.842
3383.43	184.316
3382.13	191.053
3380.83	189.526
3379.53	176.158
3378.22	160.053
3376.92	192.842
3375.62	180.789
3374.32	178.842
3373.01	184.053
3371.71	200.947
3370.4	181.421
3369.1	187.105
3367.79	182.947
3366.49	176.789
3365.18	168.053
3363.88	187.474
3362.57	196.158
3361.26	177.737
3359.96	193.211
3358.65	192.842
3357.34	217.632
3356.03	180.789
3354.73	197.316
3353.42	208.579
3352.11	197.684
3350.8	199.789
3349.49	199.263
3348.18	214
3346.87	199.211
3345.56	208
3344.25	187.789
3342.93	213.737
3341.62	205.474
3340.31	218.105
3339	226.316
3337.69	206.211
3336.37	208.211
3335.06	235.211
3333.74	237.632
3332.43	213.684
3331.12	229.474
3329.8	237.421
3328.49	237.316
3327.17	234.421
3325.86	218.158
3324.54	217.947
3323.22	228.684
3321.91	241.474
3320.59	239.421
3319.27	234.947
3317.95	230.368
3316.63	224.632
3315.32	228.684
3314	237.474
3312.68	222.842
3311.36	244.842
3310.04	222.158
3308.72	229.842
3307.4	220.632
3306.08	224.263
3304.75	236.526
3303.43	233.211
3302.11	218.474
3300.79	226.368
3299.47	229.579
3298.14	247.211
3296.82	242.105
3295.5	241
3294.17	238.789
3292.85	246.632
3291.52	245.368
3290.2	253.737
3288.87	250.105
3287.55	251.579
3286.22	266.211
3284.89	258.579
3283.57	273.684
3282.24	264.263
3280.91	269.526
3279.58	275.684
3278.26	285.895
3276.93	257.789
3275.6	289.211
3274.27	300.947
3272.94	307.368
3271.61	300.316
3270.28	309.053
3268.95	299.105
3267.62	315.737
3266.29	311.842
3264.96	341.526
3263.62	341.895
3262.29	332.368
3260.96	346.684
3259.63	351.632
3258.29	331.263
3256.96	361.316
3255.62	345.211
3254.29	356.211
3252.95	353.053
3251.62	358.158
3250.28	368.105
3248.95	372.053
3247.61	364.474
3246.28	377.579
3244.94	388.684
3243.6	391.368
3242.26	398.789
3240.93	390.263
3239.59	379.684
3238.25	404.316
3236.91	387.421
3235.57	391.947
3234.23	401.474
3232.89	401.158
3231.55	377.105
3230.21	395.474
3228.87	412.579
3227.53	386.842
3226.19	395.053
3224.85	403.158
3223.5	390.842
3222.16	417.263
3220.82	401.421
3219.47	414.368
3218.13	418.263
3216.79	413.474
3215.44	402.684
3214.1	409.579
3212.75	423.947
3211.41	422.316
3210.06	411.737
3208.71	399.105
3207.37	407.684
3206.02	429.474
3204.67	432.474
3203.33	434.368
3201.98	421.842
3200.63	415.053
3199.28	421.737
3197.93	420.158
3196.58	439.316
3195.23	418.053
3193.88	438.526
3192.53	415.263
3191.18	415.158
3189.83	419.211
3188.48	430.053
3187.13	420.316
3185.78	419
3184.42	434.053
3183.07	423.474
3181.72	439.105
3180.36	434.421
3179.01	437
3177.66	441.684
3176.3	435.211
3174.95	429.526
3173.59	436.053
3172.24	429.474
3170.88	437
3169.52	421.632
3168.17	433.053
3166.81	429.158
3165.45	420.579
3164.1	439.053
3162.74	430.474
3161.38	440.368
3160.02	440
3158.66	438.105
3157.3	438.526
3155.94	439.579
3154.58	448.368
3153.22	442
3151.86	413.368
3150.5	431.316
3149.14	444.105
3147.78	432.263
3146.41	440.316
3145.05	449.842
3143.69	427.316
3142.32	453.263
3140.96	417.895
3139.6	421.368
3138.23	426
3136.87	429.158
3135.5	420.421
3134.14	430.684
3132.77	436.316
3131.41	404.789
3130.04	416.263
3128.67	417.526
3127.31	419.263
3125.94	412.053
3124.57	412.158
3123.2	410.053
3121.83	390.737
3120.47	415.368
3119.1	400.158
3117.73	423
3116.36	375.263
3114.99	402.316
3113.61	398.684
3112.24	401.632
3110.87	399.263
3109.5	398.737
3108.13	389.263
3106.76	399.263
3105.38	384.684
3104.01	381.105
3102.64	393.579
3101.26	377.474
3099.89	365.158
3098.51	393.947
3097.14	371.684
3095.76	365.105
3094.39	379.789
3093.01	366.105
3091.64	380.579
3090.26	351.158
3088.88	357.947
3087.5	367.263
3086.13	360.368
3084.75	374.421
3083.37	362.842
3081.99	373.105
3080.61	351.421
3079.23	365.053
3077.85	351.947
3076.47	356.368
3075.09	352.474
3073.71	357.526
3072.33	368
3070.95	346.158
3069.57	341.947
3068.18	355.053
3066.8	335.211
3065.42	332.158
3064.04	332
3062.65	345.474
3061.27	369.158
3059.88	322.368
3058.5	364.474
3057.11	353.474
3055.73	347.895
3054.34	325.737
3052.96	338
3051.57	330.053
3050.18	330.947
3048.8	307
3047.41	346.368
3046.02	330.684
3044.63	321.579
3043.24	332.474
3041.85	335.947
3040.46	337.842
3039.07	307.579
3037.68	327.842
3036.29	320.158
3034.9	338.526
3033.51	333.632
3032.12	345.895
3030.73	336.105
3029.34	325.105
3027.94	321.895
3026.55	309
3025.16	339.789
3023.76	326.421
3022.37	332.158
3020.97	325.421
3019.58	321.474
3018.18	333.526
3016.79	325.789
3015.39	314.632
3014	335.526
3012.6	319.053
3011.2	334.526
3009.81	354.474
3008.41	320.21
3007.01	335.316
3005.61	336.632
3004.21	330.263
3002.81	343.105
3001.41	322.684
3000.01	335.158
2998.61	331.368
2997.21	325.947
2995.81	330.579
2994.41	365.842
2993.01	327.579
2991.61	335.263
2990.21	332.526
2988.8	345
2987.4	338.579
2986	329.263
2984.59	344.053
2983.19	349
2981.78	335.789
2980.38	353.421
2978.97	335.842
2977.57	333.947
2976.16	344.474
2974.76	348.263
2973.35	360.526
2971.94	363.211
2970.54	344.263
2969.13	354.526
2967.72	334.947
2966.31	347.421
2964.9	343.579
2963.49	339.789
2962.08	345.105
2960.67	340.789
2959.26	342.158
2957.85	371.158
2956.44	357.053
2955.03	350.368
2953.62	355.263
2952.21	373.316
2950.8	350.947
2949.38	351.684
2947.97	364.474
2946.56	342.368
2945.14	358.368
2943.73	374.526
2942.31	368
2940.9	363.684
2939.48	362.316
2938.07	377.21
2936.65	360.474
2935.24	354
2933.82	372.842
2932.4	366.263
2930.98	361.421
2929.57	358.895
2928.15	374.684
2926.73	375.684
2925.31	375.263
2923.89	377.474
2922.47	385.895
2921.05	380.316
2919.63	384.053
2918.21	387
2916.79	386.579
2915.37	393.684
2913.95	375.474
2912.52	375.632
2911.1	389.053
2909.68	377
2908.26	365.053
2906.83	387.684
2905.41	386.316
2903.98	391.421
2902.56	387.316
2901.13	376.474
2899.71	391.053
2898.28	372.105
2896.86	379.947
2895.43	398.579
2894	394.579
2892.58	372.263
2891.15	383.316
2889.72	389.632
2888.29	402
2886.86	381.842
2885.44	372.579
2884.01	381.053
2882.58	384.947
2881.15	390.316
2879.72	397.632
2878.28	387.947
2876.85	389
2875.42	408.474
2873.99	402.737
2872.56	404.684
2871.12	385.947
2869.69	405.263
2868.26	415.737
2866.82	429.421
2865.39	409.579
2863.96	402.263
2862.52	418.421
2861.09	395.737
2859.65	400.737
2858.21	395.895
2856.78	420.211
2855.34	405.263
2853.9	411.632
2852.47	408.368
2851.03	419.263
2849.59	408.526
2848.15	416.789
2846.71	403.421
2845.27	413.158
2843.83	421.737
2842.39	422.579
2840.95	411.316
2839.51	443.316
2838.07	417.79
2836.63	446.632
2835.19	435.474
2833.75	430.526
2832.3	427.895
2830.86	437.789
2829.42	440.158
2827.97	431.263
2826.53	426.053
2825.09	415.158
2823.64	422.895
2822.2	438.579
2820.75	432.632
2819.3	447.632
2817.86	441.895
2816.41	422.474
2814.96	433.421
2813.52	439.421
2812.07	435.421
2810.62	443.053
2809.17	432.737
2807.72	442.105
2806.27	442.263
2804.82	445.368
2803.38	460.316
2801.92	463.316
2800.47	443.526
2799.02	467.263
2797.57	472.895
2796.12	454.105
2794.67	447.947
2793.22	438.474
2791.76	466.947
2790.31	462.842
2788.86	457.684
2787.4	481.737
2785.95	451
2784.49	470.895
2783.04	453.632
2781.58	480.316
2780.13	480.579
2778.67	475.842
2777.21	480.158
2775.76	483.526
2774.3	470.211
2772.84	497.684
2771.38	463.368
2769.92	489.895
2768.47	490.158
2767.01	486.684
2765.55	469.526
2764.09	484.579
2762.63	493.211
2761.17	486.684
2759.71	489.842
2758.24	490.158
2756.78	486.579
2755.32	505.947
2753.86	496.789
2752.39	496.474
2750.93	501.895
2749.47	500.579
2748	518
2746.54	513.895
2745.07	500.947
2743.61	512.211
2742.14	504.211
2740.68	521.895
2739.21	516.526
2737.75	510.579
2736.28	521.316
2734.81	501.474
2733.34	537.579
2731.88	511.263
2730.41	536.053
2728.94	531.421
2727.47	528.789
2726	531.684
2724.53	526.737
2723.06	516.053
2721.59	533.632
2720.12	538.263
2718.65	522.421
2717.17	536.737
2715.7	532.316
2714.23	538
2712.76	531.316
2711.28	545
2709.81	530.579
2708.34	549.158
2706.86	539.158
2705.39	536.474
2703.91	565.211
2702.44	538
2700.96	553.579
2699.48	567.579
2698.01	547.263
2696.53	558.79
2695.05	543.421
2693.58	560.158
2692.1	553.737
2690.62	563.158
2689.14	554.316
2687.66	565.947
2686.18	558.632
2684.7	555.579
2683.22	550.263
2681.74	556.632
2680.26	571
2678.78	560.579
2677.3	574.316
2675.81	577.737
2674.33	565.158
2672.85	581.421
2671.36	582.316
2669.88	587.158
2668.4	572.368
2666.91	601.684
2665.43	574.895
2663.94	576.526
2662.46	590.632
2660.97	600.684
2659.48	597.632
2658	599.368
2656.51	612.105
2655.02	607.368
2653.53	596.421
2652.05	591.947
2650.56	595.684
2649.07	614.947
2647.58	609.79
2646.09	623
2644.6	608.158
2643.11	610.158
2641.62	607.211
2640.13	614
2638.63	616
2637.14	621.053
2635.65	628.316
2634.16	630.579
2632.66	628.947
2631.17	633.632
2629.68	621.895
2628.18	626.474
2626.69	644.684
2625.19	628.895
2623.7	629.895
2622.2	639.211
2620.7	645.789
2619.21	657.421
2617.71	604.842
2616.21	662.684
2614.72	662.526
2613.22	658.842
2611.72	649.474
2610.22	662.947
2608.72	630.842
2607.22	637
2605.72	667.158
2604.22	675.158
2602.72	680.842
2601.22	688
2599.72	684.947
2598.22	660.684
2596.71	660.368
2595.21	682.368
2593.71	672.474
2592.2	682.947
2590.7	691.368
2589.2	668.211
2587.69	681.842
2586.19	684.158
2584.68	684.158
2583.18	689.526
2581.67	680.263
2580.16	699.684
2578.66	693
2577.15	694.737
2575.64	686.737
2574.13	702.421
2572.63	721.263
2571.12	708.947
2569.61	707.21
2568.1	708.737
2566.59	718
2565.08	731.158
2563.57	723.632
2562.06	724.526
2560.55	720
2559.03	722.632
2557.52	716.526
2556.01	721.526
2554.5	715.947
2552.98	724.211
2551.47	731.684
2549.96	719.526
2548.44	718.263
2546.93	725.632
2545.41	730.737
2543.9	732.632
2542.38	725.316
2540.86	721.579
2539.35	734.158
2537.83	740.421
2536.31	734.474
2534.79	744
2533.28	731.737
2531.76	757.316
2530.24	732.684
2528.72	748.526
2527.2	735.263
2525.68	743.79
2524.16	733.053
2522.64	750.211
2521.12	755.263
2519.59	747.947
2518.07	754.526
2516.55	752.789
2515.03	773.053
2513.5	750.79
2511.98	773.158
2510.46	761.105
2508.93	756.632
2507.41	767.947
2505.88	760.526
2504.36	767.211
2502.83	773.895
2501.3	781.789
2499.78	761.316
2498.25	784.316
2496.72	783
2495.2	781.737
2493.67	770.263
2492.14	782.21
2490.61	790.158
2489.08	782.158
2487.55	778.947
2486.02	786.263
2484.49	799.053
2482.96	785.895
2481.43	766.579
2479.9	796.842
2478.36	793.789
2476.83	795.421
2475.3	813.579
2473.77	802.105
2472.23	809.263
2470.7	801.737
2469.16	794.263
2467.63	806.368
2466.09	804.474
2464.56	805.316
2463.02	822.842
2461.49	780.947
2459.95	818.316
2458.41	832.316
2456.87	819.053
2455.34	814.895
2453.8	821.789
2452.26	853.842
2450.72	816.579
2449.18	834.158
2447.64	833
2446.1	845.947
2444.56	817.789
2443.02	860.368
2441.48	835.895
2439.94	851.474
2438.39	838.684
2436.85	844.842
2435.31	861.053
2433.77	856.316
2432.22	838.737
2430.68	851.79
2429.13	877.316
2427.59	891.631
2426.04	855.211
2424.5	868.895
2422.95	895.474
2421.41	866.421
2419.86	875.947
2418.31	887.737
2416.76	890.526
2415.22	888.947
2413.67	877.526
2412.12	889.316
2410.57	909.737
2409.02	894.158
2407.47	899.789
2405.92	894.789
2404.37	903.789
2402.82	892.947
2401.27	910.316
2399.71	883.579
2398.16	906.895
2396.61	899.842
2395.06	920.421
2393.5	900.947
2391.95	920.895
2390.4	916.789
2388.84	936.526
2387.29	931.105
2385.73	926.474
2384.17	923.947
2382.62	916.684
2381.06	931.474
2379.51	935.105
2377.95	930.579
2376.39	939.842
2374.83	936.684
2373.27	928.947
2371.72	944.737
2370.16	949
2368.6	949.737
2367.04	927.316
2365.48	960.842
2363.92	960.632
2362.35	954.789
2360.79	964.947
2359.23	962.842
2357.67	945.316
2356.1	980.316
2354.54	989.263
2352.98	997.316
2351.41	986.737
2349.85	984.263
2348.29	1010.84
2346.72	1005.68
2345.15	995.684
2343.59	989.474
2342.02	1019.68
2340.46	999.368
2338.89	1019
2337.32	1009.42
2335.75	1017.53
2334.18	1028.26
2332.62	1015
2331.05	1046.47
2329.48	1060
2327.91	1037.89
2326.34	1059.11
2324.77	1052.68
2323.2	1056.95
2321.63	1025.42
2320.05	1067.26
2318.48	1077.63
2316.91	1041.89
2315.34	1064.79
2313.76	1054.05
2312.19	1069.74
2310.61	1049.58
2309.04	1065.16
2307.46	1087.47
2305.89	1083.21
2304.31	1093.37
2302.74	1094.53
2301.16	1092.47
2299.58	1087.21
2298.01	1101.84
2296.43	1098.58
2294.85	1092.79
2293.27	1081.95
2291.69	1149.47
2290.11	1119.53
2288.53	1117.79
2286.95	1101.84
2285.37	1118.42
2283.79	1138.05
2282.21	1114.63
2280.63	1122.53
2279.05	1141.47
2277.47	1138.37
2275.88	1132.53
2274.3	1163.95
2272.72	1156.16
2271.13	1151.58
2269.55	1164.58
2267.96	1185.47
2266.38	1169.74
2264.79	1186.47
2263.21	1182.42
2261.62	1188.47
2260.03	1214.05
2258.44	1196.26
2256.86	1211.16
2255.27	1224.11
2253.68	1211.37
2252.09	1244.89
2250.5	1212.47
2248.91	1241.68
2247.32	1228.21
2245.73	1242.79
2244.14	1231.74
2242.55	1255.05
2240.96	1239.42
2239.37	1254.16
2237.77	1260.42
2236.18	1286.42
2234.59	1270.68
2232.99	1267.84
2231.4	1288.53
2229.81	1278.58
2228.21	1277.95
2226.62	1297.37
2225.02	1281.58
2223.42	1318.16
2221.83	1298.74
2220.23	1301.89
2218.63	1317.95
2217.04	1328.05
2215.44	1323.11
2213.84	1339.16
2212.24	1342.95
2210.64	1336.37
2209.04	1339.84
2207.44	1362.47
2205.84	1362.47
2204.24	1365.37
2202.64	1369.05
2201.04	1372.05
2199.44	1409.89
2197.83	1389.37
2196.23	1405.58
2194.63	1394.79
2193.03	1414
2191.42	1393
2189.82	1433.95
2188.21	1424.42
2186.61	1418.74
2185	1442.53
2183.4	1442.89
2181.79	1449.42
2180.18	1442.26
2178.57	1444.26
2176.97	1484.11
2175.36	1471.47
2173.75	1465.32
2172.14	1480.63
2170.53	1499.58
2168.92	1494.37
2167.31	1480.05
2165.7	1486.47
2164.09	1493.37
2162.48	1500.05
2160.87	1519.58
2159.26	1534.42
2157.65	1529.79
2156.03	1512.95
2154.42	1528.47
2152.81	1549.84
2151.19	1528.68
2149.58	1541.26
2147.96	1549.63
2146.35	1546.32
2144.73	1548.26
2143.12	1548.89
2141.5	1553.42
2139.88	1561.32
2138.26	1554.16
2136.65	1562.68
2135.03	1555.16
2133.41	1558.21
2131.79	1568.74
2130.17	1557.21
2128.55	1579.63
2126.93	1575.21
2125.31	1602.68
2123.69	1615.32
2122.07	1603.95
2120.45	1599.47
2118.83	1602.21
2117.2	1621.53
2115.58	1597.21
2113.96	1657.37
2112.33	1627.26
2110.71	1633.11
2109.08	1652.74
2107.46	1669.84
2105.83	1651.47
2104.21	1666.42
2102.58	1661
2100.96	1660.05
2099.33	1701.84
2097.7	1693.16
2096.07	1707.42
2094.45	1693
2092.82	1705.32
2091.19	1682.21
2089.56	1694
2087.93	1716.68
2086.3	1718.84
2084.67	1696.32
2083.04	1719.95
2081.41	1733.47
2079.77	1746.74
2078.14	1727.58
2076.51	1729.95
2074.88	1747.84
2073.24	1774.32
2071.61	1762.74
2069.97	1766
2068.34	1789.21
2066.7	1754.26
2065.07	1779.53
2063.43	1795.74
2061.8	1791.74
2060.16	1776.89
2058.52	1800.53
2056.89	1806.95
2055.25	1822.21
2053.61	1781.84
2051.97	1809.58
2050.33	1818.84
2048.69	1834.58
2047.05	1815
2045.41	1805.63
2043.77	1835.11
2042.13	1836.21
2040.49	1824.84
2038.85	1849.11
2037.2	1843
2035.56	1859.79
2033.92	1843
2032.27	1830.84
2030.63	1865.21
2028.99	1851
2027.34	1871.68
2025.7	1879.89
2024.05	1832.95
2022.4	1871
2020.76	1875.16
2019.11	1886.89
2017.46	1897.79
2015.82	1868.79
2014.17	1897.37
2012.52	1897.05
2010.87	1909.42
2009.22	1914.16
2007.57	1914.37
2005.92	1912
2004.27	1911.32
2002.62	1924.47
2000.97	1923.79
1999.31	1913.05
1997.66	1933.42
1996.01	1922.42
1994.36	1931.74
1992.7	1934.89
1991.05	1947.05
1989.39	1951.47
1987.74	1953.58
1986.09	1943.63
1984.43	1940.63
1982.77	1980.84
1981.12	1961.89
1979.46	1956.47
1977.8	1982.74
1976.15	1992.11
1974.49	1993.68
1972.83	1992.74
1971.17	1993.47
1969.51	2006.79
1967.85	2003.63
1966.19	2014.58
1964.53	2033.84
1962.87	2011.79
1961.21	2015.47
1959.55	2023
1957.88	2020.05
1956.22	2033.21
1954.56	2018.53
1952.9	2042.47
1951.23	2052.26
1949.57	2034.11
1947.9	2068.53
1946.24	2065.42
1944.57	2053.16
1942.91	2079.68
1941.24	2073.42
1939.57	2066.63
1937.91	2065.32
1936.24	2082.89
1934.57	2102
1932.9	2094.58
1931.23	2084.42
1929.56	2124.63
1927.89	2119.58
1926.23	2124.32
1924.55	2129.05
1922.88	2103
1921.21	2118.68
1919.54	2132.58
1917.87	2128.79
1916.2	2129.53
1914.52	2120.84
1912.85	2144.74
1911.18	2155.95
1909.5	2143.84
1907.83	2140.53
1906.15	2160
1904.48	2144.16
1902.8	2151.05
1901.13	2171.32
1899.45	2161.05
1897.77	2154.32
1896.09	2184.9
1894.42	2180.79
1892.74	2197.05
1891.06	2163.58
1889.38	2204.32
1887.7	2228.63
1886.02	2216.11
1884.34	2207.05
1882.66	2234.58
1880.98	2229.26
1879.3	2230.79
1877.61	2222.32
1875.93	2239.79
1874.25	2246.42
1872.56	2256.42
1870.88	2276.11
1869.2	2257.53
1867.51	2270.68
1865.83	2276.11
1864.14	2266.11
1862.46	2279.79
1860.77	2276.05
1859.08	2287.53
1857.4	2269.68
1855.71	2270.37
1854.02	2290.58
1852.33	2281.11
1850.64	2302.42
1848.95	2299.47
1847.26	2316.05
1845.57	2308.89
1843.88	2314.84
1842.19	2337.11
1840.5	2319.58
1838.81	2313.11
1837.12	2338.37
1835.43	2314.79
1833.73	2316.32
1832.04	2316.79
1830.34	2346.58
1828.65	2333.89
1826.96	2336.11
1825.26	2349.84
1823.57	2346.63
1821.87	2330.16
1820.17	2341.1
1818.48	2367.05
1816.78	2359.58
1815.08	2358.68
1813.38	2376.37
1811.69	2371.42
1809.99	2382.37
1808.29	2409.21
1806.59	2387.89
1804.89	2418.47
1803.19	2393.53
1801.49	2443.74
1799.78	2461.21
1798.08	2435.68
1796.38	2457.84
1794.68	2472.47
1792.97	2466.89
1791.27	2496.11
1789.57	2493.32
1787.86	2505.05
1786.16	2507.58
1784.45	2505.68
1782.75	2543.74
1781.04	2526.37
1779.34	2544.9
1777.63	2515.95
1775.92	2540.37
1774.21	2548.37
1772.51	2545.05
1770.8	2573.47
1769.09	2574.11
1767.38	2565.95
1765.67	2583.16
1763.96	2630.9
1762.25	2604.74
1760.54	2645.89
1758.82	2620.32
1757.11	2629.89
1755.4	2616.11
1753.69	2649.21
1751.97	2630.32
1750.26	2624.37
1748.55	2653.21
1746.83	2656.68
1745.12	2643.42
1743.4	2678.05
1741.69	2666.37
1739.97	2671.79
1738.25	2683.26
1736.54	2694.74
1734.82	2673.58
1733.1	2706.84
1731.38	2687.47
1729.66	2714.84
1727.94	2724.74
1726.22	2750.58
1724.5	2715.79
1722.78	2747.79
1721.06	2734.05
1719.34	2735.84
1717.62	2773
1715.9	2743.79
1714.18	2781.58
1712.45	2774.84
1710.73	2767.89
1709	2788.16
1707.28	2785.05
1705.56	2825.53
1703.83	2804.05
1702.11	2832.84
1700.38	2836.58
1698.65	2858.74
1696.93	2828.95
1695.2	2846.26
1693.47	2853.84
1691.74	2833.21
1690.01	2836.16
1688.28	2884.11
1686.55	2877
1684.83	2881.42
1683.09	2893.89
1681.36	2910.84
1679.63	2912.63
1677.9	2932
1676.17	2919.42
1674.44	2952.42
1672.7	2950.68
1670.97	2966.68
1669.24	2960.21
1667.5	2994.26
1665.77	3032.37
1664.03	3018.53
1662.3	3030.05
1660.56	3059.95
1658.83	3061.1
1657.09	3085.32
1655.35	3093.68
1653.61	3077.58
1651.88	3083.95
1650.14	3110.37
1648.4	3115.47
1646.66	3134.84
1644.92	3147.68
1643.18	3123.58
1641.44	3171.16
1639.7	3148.53
1637.96	3155.26
1636.22	3162.26
1634.47	3191.11
1632.73	3182.79
1630.99	3220.32
1629.24	3220.68
1627.5	3230
1625.75	3247.47
1624.01	3235.16
1622.26	3281
1620.52	3277.11
1618.77	3280.79
1617.03	3291.63
1615.28	3296.05
1613.53	3289.79
1611.78	3289.37
1610.04	3322.84
1608.29	3312.68
1606.54	3311.42
1604.79	3343
1603.04	3317.74
1601.29	3325.74
1599.54	3308.53
1597.78	3309.89
1596.03	3313.63
1594.28	3332.32
1592.53	3279.16
1590.77	3302.16
1589.02	3272.05
1587.27	3257.21
1585.51	3250.68
1583.76	3279.05
1582	3277.05
1580.25	3270.42
1578.49	3248.63
1576.73	3272.79
1574.98	3266.84
1573.22	3240.32
1571.46	3234.16
1569.7	3220.16
1567.94	3257
1566.19	3195.74
1564.43	3238.16
1562.67	3204.37
1560.91	3225.21
1559.14	3236
1557.38	3224.37
1555.62	3240.42
1553.86	3215.05
1552.1	3248.47
1550.33	3260.42
1548.57	3215.84
1546.81	3246.21
1545.04	3256.95
1543.28	3257.74
1541.51	3253.05
1539.75	3245.37
1537.98	3248.11
1536.21	3265.89
1534.45	3294.74
1532.68	3301.74
1530.91	3280.84
1529.14	3296.74
1527.37	3312.79
1525.6	3307.05
1523.83	3328.11
1522.06	3325.79
1520.29	3370.74
1518.52	3355.58
1516.75	3374.21
1514.98	3354.26
1513.21	3393.95
1511.43	3407.21
1509.66	3423.37
1507.89	3376.53
1506.11	3403.16
1504.34	3424.84
1502.57	3413.89
1500.79	3430.74
1499.01	3404.26
1497.24	3452.11
1495.46	3429.58
1493.68	3441.68
1491.91	3440.47
1490.13	3444.74
1488.35	3435.79
1486.57	3414.95
1484.79	3436.37
1483.01	3430.21
1481.23	3454.79
1479.45	3445.68
1477.67	3453.47
1475.89	3440.68
1474.11	3430.95
1472.32	3460.16
1470.54	3443.26
1468.76	3442.47
1466.98	3447.63
1465.19	3461.26
1463.41	3462.11
1461.62	3466.42
1459.84	3475.26
1458.05	3472.42
1456.26	3477.74
1454.48	3501.05
1452.69	3495.37
1450.9	3525.63
1449.11	3524.68
1447.33	3509.16
1445.54	3531.53
1443.75	3546.05
1441.96	3574.63
1440.17	3536.84
1438.38	3573.47
1436.58	3577.79
1434.79	3596.63
1433	3594.05
1431.21	3636.74
1429.42	3648.21
1427.62	3628.11
1425.83	3645.05
1424.03	3673.68
1422.24	3674.16
1420.44	3670.47
1418.65	3698.84
1416.85	3714.05
1415.06	3710.47
1413.26	3726.26
1411.46	3735.21
1409.66	3724.63
1407.87	3694.11
1406.07	3722.32
1404.27	3729.84
1402.47	3735.37
1400.67	3717.53
1398.87	3703.74
1397.07	3720.95
1395.27	3707.79
1393.46	3716.11
1391.66	3685.37
1389.86	3702.11
1388.06	3741.32
1386.25	3753.21
1384.45	3732.53
1382.64	3735.21
1380.84	3737.37
1379.03	3756.37
1377.23	3764.79
1375.42	3754.68
1373.62	3762.16
1371.81	3782.05
1370	3796.63
1368.19	3789.32
1366.38	3795.16
1364.58	3800.74
1362.77	3838.58
1360.96	3835.79
1359.15	3833.47
1357.33	3895.37
1355.52	3858.26
1353.71	3842.53
1351.9	3884.53
1350.09	3900.74
1348.27	3925.74
1346.46	3913.68
1344.65	3936.89
1342.83	3949.21
1341.02	3958.16
1339.2	3956.68
1337.39	3977.47
1335.57	3958.47
1333.76	3988.68
1331.94	3986.21
1330.12	4009.79
1328.3	4031.21
1326.48	4031.37
1324.67	4030.74
1322.85	4021.79
1321.03	4034.16
1319.21	4039.63
1317.39	4028.21
1315.57	4027.11
1313.74	4033.74
1311.92	4042.74
1310.1	4041.53
1308.28	4036.63
1306.45	4037.79
1304.63	4021.89
1302.81	4059.37
1300.98	4055.47
1299.16	4039.47
1297.33	4066.58
1295.51	4033.16
1293.68	4056.68
1291.85	4044.26
1290.02	4057.47
1288.2	4085.68
1286.37	4078.16
1284.54	4069.26
1282.71	4078.21
1280.88	4130.84
1279.05	4097.16
1277.22	4050.05
1275.39	4087.37
1273.56	4049.68
1271.73	4113.53
1269.89	4086.05
1268.06	4126
1266.23	4083.47
1264.4	4115.42
1262.56	4111.26
1260.73	4130.32
1258.89	4141.16
1257.06	4129.21
1255.22	4154.84
1253.38	4172.89
1251.55	4127.1
1249.71	4165.74
1247.87	4165.58
1246.03	4150.37
1244.2	4176.21
1242.36	4181.53
1240.52	4179.21
1238.68	4171.74
1236.84	4179.26
1235	4164.68
1233.16	4170
1231.31	4201.68
1229.47	4201.68
1227.63	4183
1225.79	4150.05
1223.94	4195.79
1222.1	4167.89
1220.25	4167.47
1218.41	4186.74
1216.56	4202.58
1214.72	4190.58
1212.87	4171.26
1211.02	4188
1209.18	4162.58
1207.33	4235.37
1205.48	4176.16
1203.63	4221.89
1201.78	4210.16
1199.93	4192.11
1198.08	4169.16
1196.23	4218.37
1194.38	4213.89
1192.53	4202.95
1190.68	4234.84
1188.83	4235.11
1186.98	4227.42
1185.12	4247.16
1183.27	4174.68
1181.41	4215.16
1179.56	4256
1177.71	4222.95
1175.85	4261.84
1173.99	4285.21
1172.14	4278.16
1170.28	4265.37
1168.42	4272.68
1166.57	4299
1164.71	4283.47
1162.85	4307.84
1160.99	4307.53
1159.13	4323.21
1157.27	4323.05
1155.41	4327.21
1153.55	4359.05
1151.69	4383.79
1149.83	4346.37
1147.97	4352
1146.1	4341.74
1144.24	4353.21
1142.38	4348.21
1140.51	4349.9
1138.65	4349.26
1136.78	4339.21
1134.92	4358.68
1133.05	4344.58
1131.18	4345.21
1129.32	4350.16
1127.45	4349.79
1125.58	4336.79
1123.71	4319.47
1121.85	4324.84
1119.98	4345.53
1118.11	4325.26
1116.24	4302.42
1114.37	4298.95
1112.5	4332.95
1110.62	4338.11
1108.75	4326.79
1106.88	4337.42
1105.01	4350.89
1103.13	4359.69
1101.26	4388.74
1099.39	4396.74
1097.51	4389.84
1095.64	4417.21
1093.76	4371.47
1091.89	4424.53
1090.01	4421.05
1088.13	4429.37
1086.25	4416.26
1084.38	4464.32
1082.5	4468.68
1080.62	4486.47
1078.74	4502.32
1076.86	4503.11
1074.98	4520.21
1073.1	4525.63
1071.22	4534.26
1069.34	4547.21
1067.45	4542.26
1065.57	4533.58
1063.69	4522.1
1061.81	4525
1059.92	4539.58
1058.04	4560.53
1056.15	4548.16
1054.27	4565.68
1052.38	4612.95
1050.5	4594.79
1048.61	4584.16
1046.72	4584.21
1044.83	4615.84
1042.95	4568.32
1041.06	4615.63
1039.17	4617.21
1037.28	4601.58
1035.39	4640.84
1033.5	4620.53
1031.61	4660.74
1029.72	4664.95
1027.82	4634.58
1025.93	4674.1
1024.04	4643.95
1022.15	4633.95
1020.25	4643.74
1018.36	4662.53
1016.46	4651.63
1014.57	4737.47
1012.67	4680.21
1010.78	4682.84
1008.88	4690.63
1006.99	4717.79
1005.09	4738.95
1003.19	4724.16
1001.29	4762.26
999.393	4730.89
997.494	4759.11
995.595	4767.84
993.694	4766.53
991.793	4793.95
989.893	4812.16
987.991	4802.42
986.089	4821.16
984.186	4813.84
982.284	4860.26
980.38	4848.74
978.477	4837.95
976.572	4875.05
974.667	4856.53
972.762	4883.05
970.856	4894.11
968.95	4912.26
967.043	4893.32
965.136	4924.53
963.229	4939.26
961.32	4953.11
959.412	4986.58
957.503	5025.16
955.594	5034.58
953.683	5016.74
951.773	5061.26
949.862	5044.74
947.951	5059.95
946.039	5039.95
944.127	5081.95
942.214	5070.47
940.301	5076.63
938.387	5043.16
936.472	5059.37
934.558	5097.26
932.643	5093.21
930.727	5099
928.811	5082.63
926.895	5137.47
924.978	5115.26
923.06	5173.37
921.142	5132.26
919.224	5196.68
917.305	5186.79
915.386	5200.53
913.466	5187.47
911.545	5192.21
909.625	5224.32
907.703	5268.47
905.782	5249.84
903.859	5235.53
901.937	5286.1
900.014	5278.32
898.09	5257.84
896.166	5320.68
894.241	5287.9
892.316	5293.16
890.391	5278.63
888.465	5322.53
886.539	5293.74
884.612	5336.89
882.685	5335.84
880.756	5373
878.828	5349
876.899	5357.63
874.97	5338.05
873.04	5349.84
871.11	5358.16
869.179	5391.95
867.248	5403.42
865.316	5396.89
863.384	5426.84
861.452	5431.42
859.519	5426.68
857.585	5418.11
855.651	5441.58
853.717	5452.53
851.782	5453.11
849.846	5470.47
847.91	5488
845.974	5464.58
844.037	5523.11
842.099	5509.58
840.162	5528.53
838.224	5527.21
836.284	5525.32
834.345	5523.1
832.406	5564.84
830.466	5531.42
828.525	5554.84
826.584	5527.37
824.642	5525.05
822.7	5541.16
820.757	5534.95
818.815	5567.53
816.871	5556.11
814.927	5564.05
812.982	5575.32
811.037	5588.05
809.092	5578.95
807.146	5590.47
805.2	5638.84
803.253	5581.53
801.306	5617.26
799.358	5644.53
797.41	5617.42
795.46	5615.74
793.511	5683.95
791.562	5641.63
789.611	5658.58
787.66	5659.47
785.709	5666.95
783.758	5704.74
781.806	5709.42
779.853	5684.21
777.9	5696.68
775.946	5717.9
773.992	5695.47
772.038	5705.84
770.083	5679.31
768.127	5714.32
766.171	5689.26
764.215	5703.95
762.258	5709.74
760.3	5715.05
758.342	5698.95
756.385	5723
754.425	5733.05
752.466	5745.42
750.506	5720.1
748.546	5733.79
746.586	5755.53
744.624	5789.63
742.662	5741.95
740.7	5825.37
738.737	5832.16
736.774	5819.53
734.81	5786.63
732.846	5855.05
730.881	5867.9
728.916	5853.05
726.951	5852.74
724.984	5869.05
723.018	5874.53
721.051	5849.63
719.084	5902
717.116	5919.89
715.147	5902.37
713.178	5900.1
711.209	5912.68
709.239	5918.53
707.268	5966.42
705.297	5918.05
703.327	5947.58
701.354	5958.11
699.382	5964
697.409	5923.79
695.436	5956.68
693.462	5945.05
691.488	5939
689.513	5947.21
687.538	5968.69
685.562	5908.58
683.586	5930.47
681.609	5929.84
679.632	5936.05
677.654	5929.9
675.676	5945.63
673.698	5983.74
671.718	5995.58
669.739	5998.79
667.759	5961.95
665.778	6032.9
663.797	6025.89
661.815	6036.16
659.834	6069.32
657.851	6064.68
655.868	6041.9
653.884	6111.63
651.9	6106.79
649.916	6126.47
647.931	6141.58
645.946	6139.53
643.959	6172.58
641.973	6192.21
639.986	6172.16
637.999	6210.42
636.011	6251.26
634.023	6269.32
632.034	6257.63
630.044	6266.58
628.054	6273.16
626.064	6299.16
624.073	6306.69
622.082	6295.74
620.09	6371.63
618.098	6328.42
616.105	6400.63
614.112	6378.42
612.118	6439.21
610.124	6387.37
608.129	6423.63
606.134	6461.63
604.138	6445.05
602.142	6442.79
600.145	6475.37
598.148	6463.42
596.151	6512.42
594.152	6500.37
592.154	6486.21
590.154	6529.32
588.155	6483.37
586.154	6518.47
584.154	6549
582.153	6534.9
580.152	6553.26
578.15	6590.68
576.147	6564.9
574.144	6584.16
572.141	6622.63
570.136	6577.63
568.132	6617.53
566.127	6603.84
564.121	6656
562.116	6625.37
560.109	6611.95
558.102	6653.42
556.094	6640.79
554.086	6656.42
552.078	6669.16
550.069	6646.37
548.06	6631.74
546.049	6690.95
544.039	6694.26
542.028	6730.53
540.017	6704.42
538.005	6728
535.993	6727.1
533.98	6726.16
531.966	6727.79
529.952	6749.63
527.938	6766.95
525.923	6786.32
523.907	6787.9
521.892	6824.37
519.876	6851.05
517.858	6847.32
515.841	6842.26
513.823	6878.21
511.805	6858.26
509.786	6910.74
507.767	6972.63
505.747	6999.79
503.727	7036.74
501.706	7096.58
499.684	7123.9
497.663	7133.63
495.64	7188.68
493.618	7221.16
491.594	7225.47
489.571	7239.26
487.547	7248.58
485.522	7257.84
483.497	7228.53
481.471	7268.9
479.445	7218.84
477.418	7210.37
475.391	7202.26
473.362	7208.21
471.334	7264.05
469.306	7232.79
467.276	7239.68
465.247	7251.11
463.216	7294.26
461.186	7262.16
459.154	7255
457.122	7341.95
455.091	7296.84
453.058	7336.58
451.025	7332.37
448.991	7301.89
446.957	7339.16
444.922	7331.53
442.887	7353.58
440.851	7362.21
438.814	7373.11
436.778	7360
434.741	7356.26
432.703	7391.21
430.665	7409.74
428.627	7412.42
426.587	7417.9
424.547	7435.74
422.507	7424.89
420.466	7445.26
418.425	7422.95
416.384	7412.84
414.341	7435.63
412.298	7445.84
410.256	7468.11
408.211	7489.9
406.167	7514.79
404.122	7525.58
402.078	7499.53
400.031	7515.16
397.986	7494.79
395.939	7478.58
393.892	7524.42
391.844	7498.84
389.796	7486.79
387.747	7492.58
385.698	7503.95
383.648	7441.32
381.597	7418.42
379.547	7455.79
377.495	7434.84
375.444	7431.21
373.392	7427.53
371.339	7362.68
369.286	7425.84
367.232	7376.16
365.178	7331.53
363.123	7307.79
361.068	7283
359.012	7250.11
356.956	7286.79
354.898	7278.05
352.841	7263.95
350.783	7259.42
348.726	7272.37
346.666	7265.05
344.607	7253.37
342.548	7265.68
340.487	7219.37
338.426	7263.16
336.365	7281.32
334.303	7303.16
332.241	7335.21
330.178	7286.16
328.115	7335.21
326.05	7291.63
323.986	7326.74
321.922	7317.53
319.856	7302.79
317.79	7324.42
315.724	7330.58
313.657	7318.79
311.59	7357.58
309.522	7324.26
307.454	7295.42
305.385	7346.32
303.315	7319
301.245	7323.26
299.175	7348.63
297.104	7338.79
295.032	7353.32
292.96	7310.95
290.888	7369.05
288.815	7325.68
286.741	7385.68
284.668	7367.58
282.593	7414.05
280.518	7418.16
278.443	7402.84
276.367	7471.89
274.29	7454.84
272.213	7549.9
270.135	7544.47
268.058	7582.74
265.979	7651.69
263.9	7650.84
261.82	7737.42
259.74	7737.26
257.66	7767.9
255.578	7797.95
253.497	7890
251.415	7925.95
249.331	7953.47
247.248	8001.37
245.165	8022.74
243.081	8079.37
240.997	8181.42
238.911	8185.32
236.826	8184.05
234.739	8258.05
232.653	8296.9
230.565	8316
228.477	8367.63
226.389	8394.68
224.3	8428.58
222.211	8460.89
220.121	8486.74
218.031	8516.74
215.94	8529.74
213.848	8555.26
211.757	8580.37
209.664	8631.21
207.572	8620.68
205.479	8704.11
203.384	8712.42
201.29	8710.47
199.195	8742.95
197.1	8803.47
195.003	8824.63
192.907	8886
190.81	8923
188.712	9022.95
186.615	9083.05
184.516	9156.53
182.417	9193.31
180.317	9327.37
178.217	9447.58
176.117	9528.47
174.016	9619.63
171.914	9656.16
169.812	9772.63
167.71	9835.58
165.606	9916.74
163.503	9994.63
161.398	10021.8
159.293	10146.8
157.188	10099.2
155.083	10148.9
152.976	10194.8
150.87	10208.6
148.763	10162.7
146.655	10233
144.546	10238.7
142.438	10255.9
140.328	10285.8
138.218	10268.8
136.108	10373.7
133.997	10462.2
131.886	10524.6
129.773	10618.5
127.661	10719.4
125.548	10812.7
123.435	10930.8
121.321	10998.3
119.207	11042.4
117.091	11141.5
114.975	11182.5
112.86	11206.8
110.743	11295.2
108.626	11339.9
106.508	11359.9
104.39	11298.1
102.272	11340.9
100.152	11383.1
98.0327	11391.8
95.9117	11305.1
93.791	11132.5
91.6705	10818.5
89.5484	10283.4
87.4255	9420.11
85.3029	8302.32
