3495.35	17.7895
3494.08	39.1053
3492.81	40.7368
3491.53	52.3684
3490.26	53.2632
3488.99	47.1579
3487.71	46.6842
3486.44	59.3158
3485.17	52.2632
3483.89	28.2105
3482.62	54.4737
3481.34	41
3480.06	39.1579
3478.79	52.8947
3477.51	40.9474
3476.24	52.4211
3474.96	70.8947
3473.68	61.579
3472.4	52.4211
3471.13	43.9474
3469.85	68.2632
3468.57	65.2632
3467.29	63.8947
3466.01	67.6842
3464.73	73.3158
3463.45	76.7895
3462.17	70.6842
3460.89	74.5263
3459.61	69.6842
3458.33	84.5789
3457.04	79.2632
3455.76	97.8421
3454.48	91.7368
3453.2	86.6842
3451.91	79.4211
3450.63	91.9474
3449.35	97.5263
3448.06	107.947
3446.78	96.6842
3445.49	98.1053
3444.21	100.842
3442.92	102.895
3441.64	114.737
3440.35	99.3158
3439.07	89.7368
3437.78	81
3436.49	83.5263
3435.2	113.737
3433.92	124.368
3432.63	101.632
3431.34	105.737
3430.05	108
3428.76	128.368
3427.47	124.842
3426.18	127.105
3424.89	124.789
3423.6	123.684
3422.31	121.158
3421.02	107.474
3419.73	144.526
3418.44	127.579
3417.14	136.263
3415.85	125.579
3414.56	132.947
3413.27	125.579
3411.97	152
3410.68	145.316
3409.39	122.053
3408.09	134.579
3406.8	150.211
3405.5	163.737
3404.2	134.526
3402.91	139.526
3401.61	143.421
3400.32	146.053
3399.02	144.053
3397.72	170.842
3396.42	174.211
3395.13	151.632
3393.83	148.316
3392.53	148.947
3391.23	151.895
3389.93	169.737
3388.63	165.526
3387.33	167.737
3386.03	165.526
3384.73	156.579
3383.43	162.158
3382.13	176.526
3380.83	180.316
3379.53	152
3378.22	170.789
3376.92	165.895
3375.62	164.211
3374.32	171.526
3373.01	173
3371.71	182.211
3370.4	158.579
3369.1	161.895
3367.79	184.368
3366.49	170.526
3365.18	191
3363.88	165.737
3362.57	186.211
3361.26	180.789
3359.96	175.895
3358.65	170.579
3357.34	188.474
3356.03	178.632
3354.73	180.842
3353.42	178.895
3352.11	197.842
3350.8	169.158
3349.49	183.158
3348.18	191.316
3346.87	192.947
3345.56	180.105
3344.25	199.211
3342.93	211
3341.62	187.947
3340.31	192.105
3339	203.632
3337.69	214.526
3336.37	203.684
3335.06	201.211
3333.74	203
3332.43	213.211
3331.12	206.316
3329.8	217.474
3328.49	207.053
3327.17	215.579
3325.86	209.789
3324.54	218.211
3323.22	223.579
3321.91	209.368
3320.59	210.895
3319.27	220
3317.95	196.737
3316.63	214.053
3315.32	203.421
3314	217.579
3312.68	212.684
3311.36	201.211
3310.04	208.947
3308.72	226.842
3307.4	225.895
3306.08	212.684
3304.75	225.632
3303.43	213.421
3302.11	205.737
3300.79	221.368
3299.47	221.895
3298.14	220.105
3296.82	211.105
3295.5	222.263
3294.17	217.316
3292.85	244.947
3291.52	214.632
3290.2	243.474
3288.87	235.842
3287.55	248.158
3286.22	235.526
3284.89	241.368
3283.57	268.474
3282.24	247.474
3280.91	243.421
3279.58	261.053
3278.26	262
3276.93	254
3275.6	269.579
3274.27	262.158
3272.94	275.895
3271.61	279.158
3270.28	298.105
3268.95	293.263
3267.62	287.211
3266.29	290.105
3264.96	298.105
3263.62	315.737
3262.29	308.105
3260.96	298
3259.63	309.316
3258.29	316.789
3256.96	311.053
3255.62	319.158
3254.29	321.316
3252.95	332.684
3251.62	338.684
3250.28	337.895
3248.95	351.105
3247.61	321.737
3246.28	323.158
3244.94	364.421
3243.6	327.474
3242.26	343.737
3240.93	336
3239.59	355.474
3238.25	360.895
3236.91	345.421
3235.57	343.368
3234.23	358.474
3232.89	361.316
3231.55	354.263
3230.21	364.632
3228.87	365.895
3227.53	362.316
3226.19	369.737
3224.85	352.526
3223.5	378.947
3222.16	359.421
3220.82	384.053
3219.47	366.632
3218.13	368.158
3216.79	352
3215.44	358.842
3214.1	377.579
3212.75	372.895
3211.41	386.053
3210.06	378.842
3208.71	377.316
3207.37	376.263
3206.02	367.737
3204.67	352.526
3203.33	385.842
3201.98	376.211
3200.63	380.105
3199.28	380.316
3197.93	374.789
3196.58	367.737
3195.23	383
3193.88	392.368
3192.53	371.842
3191.18	384.895
3189.83	384.632
3188.48	382.368
3187.13	380.421
3185.78	373.368
3184.42	384
3183.07	396.632
3181.72	367.474
3180.36	385.737
3179.01	391.632
3177.66	384.316
3176.3	370.842
3174.95	391.789
3173.59	397.895
3172.24	383.737
3170.88	383.211
3169.52	385.895
3168.17	385.895
3166.81	362.368
3165.45	389.368
3164.1	362
3162.74	376.368
3161.38	352.158
3160.02	374.368
3158.66	365.684
3157.3	368.053
3155.94	370.105
3154.58	375.526
3153.22	391.789
3151.86	356.263
3150.5	370.053
3149.14	379.947
3147.78	370.105
3146.41	346.421
3145.05	362.158
3143.69	362.684
3142.32	366.105
3140.96	364.053
3139.6	363.158
3138.23	363.105
3136.87	337.263
3135.5	341.526
3134.14	372.579
3132.77	347.316
3131.41	360.895
3130.04	342.158
3128.67	364.895
3127.31	350.947
3125.94	316.211
3124.57	357.421
3123.2	334.895
3121.83	333.368
3120.47	341.789
3119.1	339.316
3117.73	327.158
3116.36	319.632
3114.99	322.842
3113.61	335.842
3112.24	323.737
3110.87	315.579
3109.5	303
3108.13	317.526
3106.76	308.526
3105.38	310.789
3104.01	298.579
3102.64	303.211
3101.26	290.211
3099.89	288.526
3098.51	295.421
3097.14	305.684
3095.76	269
3094.39	292.421
3093.01	304.316
3091.64	295.895
3090.26	284.474
3088.88	278.789
3087.5	271.368
3086.13	281.474
3084.75	267.789
3083.37	270.316
3081.99	265.737
3080.61	269.684
3079.23	260.263
3077.85	280.526
3076.47	263.789
3075.09	266
3073.71	251.105
3072.33	262.053
3070.95	266.526
3069.57	256.421
3068.18	238.895
3066.8	266.474
3065.42	251.053
3064.04	268.684
3062.65	254.211
3061.27	252.579
3059.88	233.158
3058.5	252.684
3057.11	241.895
3055.73	256.632
3054.34	233.474
3052.96	231.474
3051.57	246.737
3050.18	248.158
3048.8	214.053
3047.41	234.789
3046.02	238.211
3044.63	209.737
3043.24	230.737
3041.85	234.211
3040.46	221.053
3039.07	212.421
3037.68	228.737
3036.29	219.947
3034.9	236.737
3033.51	224.579
3032.12	220
3030.73	206.789
3029.34	217.684
3027.94	223.421
3026.55	209.158
3025.16	215.579
3023.76	209.895
3022.37	205.947
3020.97	214.474
3019.58	213.632
3018.18	220.263
3016.79	212.053
3015.39	211.421
3014	222.526
3012.6	211.789
3011.2	219.368
3009.81	209.947
3008.41	212.053
3007.01	205.842
3005.61	223.211
3004.21	201.316
3002.81	215.474
3001.41	217.368
3000.01	189
2998.61	224.211
2997.21	199.737
2995.81	221
2994.41	193.947
2993.01	217.211
2991.61	203.842
2990.21	216.632
2988.8	210.421
2987.4	221.737
2986	196.789
2984.59	198.316
2983.19	207.368
2981.78	214.684
2980.38	210.579
2978.97	189.368
2977.57	206.316
2976.16	211.947
2974.76	216.684
2973.35	202.263
2971.94	195.947
2970.54	215.316
2969.13	210.579
2967.72	200
2966.31	210.105
2964.9	196.211
2963.49	205.105
2962.08	210.789
2960.67	201.316
2959.26	201.579
2957.85	192.211
2956.44	217.579
2955.03	195.579
2953.62	176
2952.21	230.316
2950.8	183.316
2949.38	209.211
2947.97	207.263
2946.56	202.947
2945.14	199.684
2943.73	208.421
2942.31	223.053
2940.9	214
2939.48	220.053
2938.07	199.474
2936.65	195.105
2935.24	202.474
2933.82	187.263
2932.4	207.368
2930.98	204
2929.57	205.895
2928.15	205.316
2926.73	206.895
2925.31	213.211
2923.89	202.316
2922.47	206.421
2921.05	213
2919.63	196.526
2918.21	174.579
2916.79	196.368
2915.37	199.947
2913.95	187.526
2912.52	205.947
2911.1	203.684
2909.68	208.632
2908.26	205.789
2906.83	194.632
2905.41	201.368
2903.98	198.842
2902.56	190.526
2901.13	207
2899.71	199.263
2898.28	185.895
2896.86	200.053
2895.43	219.368
2894	198.789
2892.58	195.789
2891.15	197.895
2889.72	198.263
2888.29	187.579
2886.86	207.105
2885.44	176.789
2884.01	203.316
2882.58	210.211
2881.15	195.526
2879.72	202.316
2878.28	201.737
2876.85	188.368
2875.42	184.053
2873.99	203
2872.56	188.632
2871.12	211.158
2869.69	194.158
2868.26	206.053
2866.82	203.947
2865.39	183.263
2863.96	201.842
2862.52	212.105
2861.09	204.053
2859.65	191.947
2858.21	212
2856.78	196.316
2855.34	224.368
2853.9	211.421
2852.47	216.368
2851.03	208.105
2849.59	211.053
2848.15	204.211
2846.71	209.842
2845.27	230.789
2843.83	194.158
2842.39	199
2840.95	216.263
2839.51	215.684
2838.07	193.211
2836.63	208.684
2835.19	222.947
2833.75	210.842
2832.3	222.684
2830.86	209.474
2829.42	200.842
2827.97	217.474
2826.53	203.632
2825.09	224.526
2823.64	212.684
2822.2	204.737
2820.75	197.737
2819.3	206.158
2817.86	218.579
2816.41	207.579
2814.96	209.053
2813.52	221.105
2812.07	199.211
2810.62	222.632
2809.17	201.158
2807.72	213.526
2806.27	209.789
2804.82	210.789
2803.38	205.211
2801.92	221.947
2800.47	187.158
2799.02	226.105
2797.57	220.684
2796.12	209.789
2794.67	206.947
2793.22	219.579
2791.76	211.474
2790.31	230.053
2788.86	236.368
2787.4	223.474
2785.95	223.842
2784.49	228.684
2783.04	224.368
2781.58	244.789
2780.13	226.895
2778.67	227.263
2777.21	216.579
2775.76	214.211
2774.3	232.789
2772.84	211.632
2771.38	217.368
2769.92	230.211
2768.47	237.211
2767.01	229.316
2765.55	240.158
2764.09	257.632
2762.63	214.737
2761.17	224.737
2759.71	228.316
2758.24	247.316
2756.78	218.737
2755.32	252.947
2753.86	238.421
2752.39	242.842
2750.93	242.158
2749.47	248.526
2748	228.632
2746.54	231.579
2745.07	242
2743.61	237.895
2742.14	227.211
2740.68	234.842
2739.21	238.368
2737.75	250.158
2736.28	240.105
2734.81	241.105
2733.34	247.842
2731.88	247.526
2730.41	246.895
2728.94	247.053
2727.47	249.684
2726	252.684
2724.53	229.947
2723.06	267.947
2721.59	252.526
2720.12	237.895
2718.65	241
2717.17	263.053
2715.7	263
2714.23	261.842
2712.76	242.579
2711.28	251.263
2709.81	252.105
2708.34	252.053
2706.86	256.895
2705.39	269.947
2703.91	263.632
2702.44	247.263
2700.96	264.789
2699.48	261.368
2698.01	250.684
2696.53	253
2695.05	270.474
2693.58	272.632
2692.1	245.211
2690.62	289.737
2689.14	263.105
2687.66	268.421
2686.18	280.053
2684.7	260.895
2683.22	261.421
2681.74	261.737
2680.26	251.684
2678.78	273.368
2677.3	271.842
2675.81	255.368
2674.33	270.895
2672.85	279.526
2671.36	283.263
2669.88	258.737
2668.4	261.632
2666.91	297.526
2665.43	286.579
2663.94	265.105
2662.46	296.316
2660.97	266.632
2659.48	290.211
2658	270.158
2656.51	281.579
2655.02	279.737
2653.53	288
2652.05	289.316
2650.56	288.684
2649.07	279.368
2647.58	278.21
2646.09	279.368
2644.6	275.211
2643.11	301.526
2641.62	280.895
2640.13	283.895
2638.63	299.211
2637.14	276.737
2635.65	295.421
2634.16	291.789
2632.66	293.263
2631.17	299.947
2629.68	305.421
2628.18	294.158
2626.69	296.789
2625.19	306.895
2623.7	301.158
2622.2	279.421
2620.7	296.842
2619.21	297.526
2617.71	309.421
2616.21	315.316
2614.72	294.579
2613.22	292
2611.72	301.053
2610.22	298.789
2608.72	284.895
2607.22	312.474
2605.72	310.421
2604.22	312.947
2602.72	294.737
2601.22	316.421
2599.72	287.842
2598.22	290.053
2596.71	294.684
2595.21	310.947
2593.71	321.316
2592.2	318.316
2590.7	306.789
2589.2	325.263
2587.69	318.842
2586.19	298.684
2584.68	318.842
2583.18	317.684
2581.67	313.158
2580.16	307.526
2578.66	330.105
2577.15	330.158
2575.64	325.263
2574.13	329.263
2572.63	334.684
2571.12	341.158
2569.61	328.947
2568.1	312.421
2566.59	337.158
2565.08	338.368
2563.57	334.105
2562.06	325.842
2560.55	322.211
2559.03	353
2557.52	331.947
2556.01	329.579
2554.5	337.263
2552.98	327.316
2551.47	346.474
2549.96	323.053
2548.44	347.158
2546.93	333.947
2545.41	329.316
2543.9	322.053
2542.38	337.368
2540.86	331.263
2539.35	346.211
2537.83	346.211
2536.31	348.211
2534.79	350.105
2533.28	340.263
2531.76	361.737
2530.24	335.421
2528.72	328
2527.2	352
2525.68	338.789
2524.16	337.263
2522.64	340.737
2521.12	340.474
2519.59	355.526
2518.07	351.105
2516.55	343.737
2515.03	344.053
2513.5	356.526
2511.98	364.053
2510.46	343.316
2508.93	368.737
2507.41	334.947
2505.88	343.526
2504.36	355.421
2502.83	361.053
2501.3	337.211
2499.78	347.474
2498.25	368.421
2496.72	357.211
2495.2	356.474
2493.67	351.263
2492.14	376.211
2490.61	336.737
2489.08	359.947
2487.55	357.947
2486.02	364.421
2484.49	355.211
2482.96	376.842
2481.43	359.474
2479.9	348.579
2478.36	355.368
2476.83	366.263
2475.3	360.684
2473.77	380.579
2472.23	369.842
2470.7	366.053
2469.16	373.105
2467.63	368.211
2466.09	368.684
2464.56	369.789
2463.02	372.421
2461.49	363.053
2459.95	366.211
2458.41	376.895
2456.87	369.737
2455.34	370
2453.8	380.368
2452.26	381.105
2450.72	375.211
2449.18	387
2447.64	386.316
2446.1	379.105
2444.56	402
2443.02	359.579
2441.48	382.632
2439.94	372.842
2438.39	382.105
2436.85	404.263
2435.31	395.526
2433.77	382.632
2432.22	396.053
2430.68	392.368
2429.13	397.474
2427.59	385.474
2426.04	392.421
2424.5	393.789
2422.95	394.316
2421.41	408.105
2419.86	382.789
2418.31	401.474
2416.76	424.053
2415.22	398.263
2413.67	415
2412.12	429.632
2410.57	416.684
2409.02	397.158
2407.47	425.105
2405.92	423.895
2404.37	411.316
2402.82	415
2401.27	419.737
2399.71	404.579
2398.16	415.895
2396.61	400.895
2395.06	425.895
2393.5	410.053
2391.95	409.316
2390.4	417.526
2388.84	423.474
2387.29	424.421
2385.73	431.211
2384.17	428.684
2382.62	433.579
2381.06	416.684
2379.51	425.211
2377.95	414.474
2376.39	428.105
2374.83	414.842
2373.27	429.053
2371.72	448.105
2370.16	421.158
2368.6	441.263
2367.04	449.684
2365.48	422.263
2363.92	426.737
2362.35	433.632
2360.79	443.684
2359.23	437.895
2357.67	452.526
2356.1	439.421
2354.54	453.947
2352.98	437.474
2351.41	442.421
2349.85	465.316
2348.29	469.316
2346.72	446.947
2345.15	458.474
2343.59	457.263
2342.02	468.211
2340.46	450.526
2338.89	472.947
2337.32	454
2335.75	471.421
2334.18	461.053
2332.62	458.947
2331.05	477.053
2329.48	474.211
2327.91	443.632
2326.34	494.263
2324.77	471.684
2323.2	473.158
2321.63	486.368
2320.05	479.368
2318.48	472.105
2316.91	470.947
2315.34	479.947
2313.76	485.158
2312.19	488.947
2310.61	463.21
2309.04	498
2307.46	495.895
2305.89	494.737
2304.31	483.263
2302.74	508.632
2301.16	506.421
2299.58	490.263
2298.01	494.684
2296.43	508.421
2294.85	523
2293.27	497.947
2291.69	516.842
2290.11	498
2288.53	506.053
2286.95	505.895
2285.37	505.474
2283.79	522.421
2282.21	512.842
2280.63	522.421
2279.05	512.579
2277.47	513.263
2275.88	504.684
2274.3	524.684
2272.72	533
2271.13	513.158
2269.55	531.684
2267.96	521.316
2266.38	551.053
2264.79	534.368
2263.21	530.579
2261.62	539.789
2260.03	556.263
2258.44	538.211
2256.86	533.895
2255.27	550.368
2253.68	563.316
2252.09	551.211
2250.5	556.263
2248.91	566.211
2247.32	562.316
2245.73	569.579
2244.14	548.947
2242.55	571.421
2240.96	562.579
2239.37	584.421
2237.77	580.632
2236.18	586.368
2234.59	565.789
2232.99	588.316
2231.4	586.947
2229.81	587.895
2228.21	583.211
2226.62	597.842
2225.02	591.316
2223.42	573.526
2221.83	616.895
2220.23	578.263
2218.63	610.684
2217.04	602.684
2215.44	619.316
2213.84	603.211
2212.24	614.684
2210.64	602.474
2209.04	629.158
2207.44	643.579
2205.84	611.211
2204.24	616.947
2202.64	614.105
2201.04	625.368
2199.44	635.789
2197.83	617.211
2196.23	632.211
2194.63	665.053
2193.03	637.105
2191.42	651.842
2189.82	661.684
2188.21	648.211
2186.61	660.684
2185	629.263
2183.4	658.526
2181.79	663.105
2180.18	688.158
2178.57	657.526
2176.97	685.474
2175.36	669.947
2173.75	654.737
2172.14	694.947
2170.53	673.211
2168.92	677.474
2167.31	695.158
2165.7	681.158
2164.09	679.316
2162.48	666.211
2160.87	679.632
2159.26	702.263
2157.65	695.526
2156.03	663.737
2154.42	683.368
2152.81	713.158
2151.19	704.632
2149.58	687.105
2147.96	709.684
2146.35	718.263
2144.73	691.579
2143.12	716.105
2141.5	702.368
2139.88	714.211
2138.26	719.632
2136.65	719.105
2135.03	714.526
2133.41	714.79
2131.79	710.263
2130.17	732.053
2128.55	724.579
2126.93	732.211
2125.31	735.263
2123.69	702.105
2122.07	746.895
2120.45	729.684
2118.83	741.895
2117.2	730.158
2115.58	742.789
2113.96	759.211
2112.33	742.842
2110.71	741.895
2109.08	733.947
2107.46	750.368
2105.83	760.053
2104.21	766.053
2102.58	774.316
2100.96	761.526
2099.33	761.474
2097.7	758.579
2096.07	761.105
2094.45	776.579
2092.82	776.474
2091.19	770.421
2089.56	783.579
2087.93	772.421
2086.3	792.895
2084.67	772.579
2083.04	788.842
2081.41	801.316
2079.77	806.789
2078.14	787.632
2076.51	812.737
2074.88	824.526
2073.24	798.947
2071.61	784.105
2069.97	819.316
2068.34	805.579
2066.7	809.211
2065.07	823
2063.43	819.368
2061.8	842
2060.16	820.684
2058.52	814.526
2056.89	815.632
2055.25	810.684
2053.61	831.684
2051.97	823.158
2050.33	830.895
2048.69	830.947
2047.05	815.737
2045.41	820.632
2043.77	833.263
2042.13	813.526
2040.49	816.632
2038.85	814.421
2037.2	849.474
2035.56	827.842
2033.92	840.947
2032.27	859.895
2030.63	837.474
2028.99	832.526
2027.34	865.211
2025.7	840.947
2024.05	841.526
2022.4	853.79
2020.76	858.684
2019.11	862.316
2017.46	829.105
2015.82	864
2014.17	867.526
2012.52	858.684
2010.87	859.158
2009.22	856.947
2007.57	832.158
2005.92	854.263
2004.27	872.105
2002.62	858.474
2000.97	874
1999.31	851.421
1997.66	869.316
1996.01	868.316
1994.36	874.737
1992.7	856.158
1991.05	868.158
1989.39	876.053
1987.74	881.158
1986.09	874.316
1984.43	885.579
1982.77	882.632
1981.12	894.368
1979.46	869.684
1977.8	901
1976.15	911.368
1974.49	886.263
1972.83	896.316
1971.17	895.789
1969.51	900.421
1967.85	889.842
1966.19	898.105
1964.53	913.684
1962.87	905.474
1961.21	907.211
1959.55	903.842
1957.88	910.158
1956.22	885.789
1954.56	924.369
1952.9	909.737
1951.23	914.421
1949.57	915.947
1947.9	926.79
1946.24	935.842
1944.57	923.526
1942.91	918.158
1941.24	939
1939.57	930
1937.91	926.421
1936.24	933.526
1934.57	929.368
1932.9	953.105
1931.23	930.842
1929.56	940.263
1927.89	941.947
1926.23	941.631
1924.55	938.842
1922.88	941.947
1921.21	943.842
1919.54	942.105
1917.87	950.632
1916.2	949.474
1914.52	955.737
1912.85	939.737
1911.18	958.263
1909.5	959.263
1907.83	955.947
1906.15	945.421
1904.48	966.895
1902.8	967.632
1901.13	976.526
1899.45	973.316
1897.77	975.737
1896.09	980.263
1894.42	974.684
1892.74	971.737
1891.06	960.632
1889.38	993.684
1887.7	979
1886.02	984.789
1884.34	980.947
1882.66	983.895
1880.98	977
1879.3	977.632
1877.61	989.263
1875.93	1003.26
1874.25	983
1872.56	985.263
1870.88	1003.84
1869.2	1010.79
1867.51	987.842
1865.83	1010.89
1864.14	1013.16
1862.46	1006.79
1860.77	1027.21
1859.08	995.526
1857.4	1018.53
1855.71	1020.89
1854.02	1037.26
1852.33	1017.68
1850.64	1031.95
1848.95	1036.42
1847.26	1028.21
1845.57	1048.53
1843.88	1019.53
1842.19	1027.26
1840.5	1027.63
1838.81	1042.26
1837.12	1017.21
1835.43	1040.63
1833.73	1034.26
1832.04	1038.79
1830.34	1035.95
1828.65	1032.63
1826.96	1052.16
1825.26	1050.32
1823.57	1035.53
1821.87	1051.37
1820.17	1063.26
1818.48	1057
1816.78	1044.53
1815.08	1036.37
1813.38	1061.26
1811.69	1057
1809.99	1059.37
1808.29	1081.26
1806.59	1063.53
1804.89	1065.42
1803.19	1071.84
1801.49	1103.84
1799.78	1087.26
1798.08	1092.21
1796.38	1111.74
1794.68	1081.42
1792.97	1102.74
1791.27	1105.79
1789.57	1122.47
1787.86	1122.53
1786.16	1116.37
1784.45	1129.79
1782.75	1124.11
1781.04	1135.74
1779.34	1122
1777.63	1136.47
1775.92	1153.68
1774.21	1133.84
1772.51	1154.47
1770.8	1142
1769.09	1176.74
1767.38	1157.42
1765.67	1166.32
1763.96	1185.47
1762.25	1159.74
1760.54	1190.89
1758.82	1191.58
1757.11	1186.89
1755.4	1189.58
1753.69	1189
1751.97	1201.63
1750.26	1206.63
1748.55	1176.68
1746.83	1197.53
1745.12	1196.68
1743.4	1196.26
1741.69	1211.68
1739.97	1203.47
1738.25	1235.26
1736.54	1216.89
1734.82	1199.37
1733.1	1234.89
1731.38	1225.42
1729.66	1218.37
1727.94	1219.16
1726.22	1241.26
1724.5	1237.84
1722.78	1230.79
1721.06	1262.05
1719.34	1254.11
1717.62	1263.84
1715.9	1278.79
1714.18	1274.79
1712.45	1282.53
1710.73	1281.79
1709	1290.95
1707.28	1309.26
1705.56	1304.37
1703.83	1304.42
1702.11	1304.21
1700.38	1301.21
1698.65	1325.11
1696.93	1328.26
1695.2	1332.26
1693.47	1367.42
1691.74	1357.89
1690.01	1341.95
1688.28	1376.68
1686.55	1371.42
1684.83	1347.74
1683.09	1381.74
1681.36	1390.21
1679.63	1387.37
1677.9	1381.79
1676.17	1380.11
1674.44	1406.05
1672.7	1427.42
1670.97	1427.05
1669.24	1419.79
1667.5	1432.79
1665.77	1442.79
1664.03	1459.11
1662.3	1476.79
1660.56	1481.16
1658.83	1488.95
1657.09	1502.32
1655.35	1504.47
1653.61	1498.84
1651.88	1502
1650.14	1506.79
1648.4	1513.26
1646.66	1535.68
1644.92	1529.47
1643.18	1546.74
1641.44	1564.32
1639.7	1549.16
1637.96	1562.05
1636.22	1553.47
1634.47	1581.37
1632.73	1560.11
1630.99	1569.16
1629.24	1591.42
1627.5	1573.58
1625.75	1577.26
1624.01	1591.63
1622.26	1613.05
1620.52	1617.63
1618.77	1599.95
1617.03	1628.42
1615.28	1624.47
1613.53	1609.58
1611.78	1642.74
1610.04	1629.63
1608.29	1653.89
1606.54	1623.37
1604.79	1603.26
1603.04	1609.84
1601.29	1603.58
1599.54	1606.89
1597.78	1592.47
1596.03	1615.95
1594.28	1606.32
1592.53	1589.05
1590.77	1581.21
1589.02	1586.21
1587.27	1571.26
1585.51	1565.84
1583.76	1580.95
1582	1548.68
1580.25	1555.63
1578.49	1527.89
1576.73	1575.68
1574.98	1546.95
1573.22	1541.58
1571.46	1540.79
1569.7	1523.74
1567.94	1522.58
1566.19	1500
1564.43	1532.32
1562.67	1517.26
1560.91	1523.68
1559.14	1509.74
1557.38	1520.21
1555.62	1515.74
1553.86	1515.63
1552.1	1513.32
1550.33	1517.37
1548.57	1523.95
1546.81	1503.32
1545.04	1499.42
1543.28	1519.63
1541.51	1520.32
1539.75	1520
1537.98	1521.47
1536.21	1515.58
1534.45	1502.11
1532.68	1533.79
1530.91	1526.84
1529.14	1529.63
1527.37	1510.11
1525.6	1548.58
1523.83	1542.32
1522.06	1522.58
1520.29	1536.37
1518.52	1552.63
1516.75	1541.21
1514.98	1525.68
1513.21	1562.47
1511.43	1532.89
1509.66	1547.53
1507.89	1549.68
1506.11	1557.84
1504.34	1549.16
1502.57	1553.05
1500.79	1560.74
1499.01	1569.32
1497.24	1567.26
1495.46	1560.68
1493.68	1563.42
1491.91	1573.37
1490.13	1580.74
1488.35	1570.89
1486.57	1550.63
1484.79	1563.05
1483.01	1564.74
1481.23	1591.47
1479.45	1569
1477.67	1564.79
1475.89	1587.79
1474.11	1563.32
1472.32	1573.89
1470.54	1580
1468.76	1580.21
1466.98	1588.84
1465.19	1570.37
1463.41	1579.37
1461.62	1593.11
1459.84	1584.05
1458.05	1578.42
1456.26	1590.89
1454.48	1569.05
1452.69	1622.74
1450.9	1629.84
1449.11	1627.63
1447.33	1632.47
1445.54	1645.53
1443.75	1637
1441.96	1639.63
1440.17	1648.84
1438.38	1655.89
1436.58	1659.68
1434.79	1675.68
1433	1660.53
1431.21	1670.53
1429.42	1674.32
1427.62	1697.89
1425.83	1710
1424.03	1710.11
1422.24	1735.89
1420.44	1704.16
1418.65	1745.16
1416.85	1714.95
1415.06	1734.21
1413.26	1734.53
1411.46	1768.63
1409.66	1742.79
1407.87	1716.95
1406.07	1741.53
1404.27	1744.68
1402.47	1736.37
1400.67	1741.84
1398.87	1727.05
1397.07	1755.05
1395.27	1737.05
1393.46	1715.89
1391.66	1749.37
1389.86	1725.11
1388.06	1734.79
1386.25	1745.53
1384.45	1733.47
1382.64	1738.21
1380.84	1743.84
1379.03	1738.58
1377.23	1746
1375.42	1769.32
1373.62	1748.05
1371.81	1740.11
1370	1764.74
1368.19	1734.68
1366.38	1784.68
1364.58	1774.58
1362.77	1769.16
1360.96	1781.79
1359.15	1802.11
1357.33	1801
1355.52	1799.68
1353.71	1799
1351.9	1800.95
1350.09	1824.47
1348.27	1816.21
1346.46	1854.32
1344.65	1843.11
1342.83	1839.63
1341.02	1839.58
1339.2	1872.53
1337.39	1846.26
1335.57	1865.05
1333.76	1868.58
1331.94	1881.63
1330.12	1875.16
1328.3	1890.16
1326.48	1886.84
1324.67	1896.89
1322.85	1904.89
1321.03	1900.63
1319.21	1897.53
1317.39	1920
1315.57	1923.47
1313.74	1892.37
1311.92	1909.58
1310.1	1892.32
1308.28	1905.79
1306.45	1886.95
1304.63	1890.21
1302.81	1913.53
1300.98	1877.42
1299.16	1880.16
1297.33	1893.53
1295.51	1923.32
1293.68	1893.21
1291.85	1895.05
1290.02	1896.16
1288.2	1890.16
1286.37	1882.84
1284.54	1903.11
1282.71	1908.74
1280.88	1902.37
1279.05	1902.16
1277.22	1878.47
1275.39	1921.74
1273.56	1916.89
1271.73	1911.26
1269.89	1890.63
1268.06	1898.84
1266.23	1884.37
1264.4	1906.37
1262.56	1909.47
1260.73	1910.37
1258.89	1887.58
1257.06	1906.58
1255.22	1919.68
1253.38	1911.53
1251.55	1915.26
1249.71	1931.42
1247.87	1934.47
1246.03	1897.11
1244.2	1935.32
1242.36	1908.11
1240.52	1940.79
1238.68	1915.84
1236.84	1928.16
1235	1918.68
1233.16	1894.63
1231.31	1922.11
1229.47	1929.47
1227.63	1939.26
1225.79	1933.58
1223.94	1900.26
1222.1	1907.53
1220.25	1925.16
1218.41	1909.95
1216.56	1941.79
1214.72	1909.79
1212.87	1919.89
1211.02	1910.84
1209.18	1923.11
1207.33	1903.16
1205.48	1926.47
1203.63	1921
1201.78	1920.53
1199.93	1936.32
1198.08	1939.95
1196.23	1930.26
1194.38	1924.58
1192.53	1917.89
1190.68	1915.74
1188.83	1919.05
1186.98	1921.68
1185.12	1922.37
1183.27	1904.68
1181.41	1929.47
1179.56	1931.79
1177.71	1934.47
1175.85	1931.79
1173.99	1927
1172.14	1957.63
1170.28	1957.47
1168.42	1921.37
1166.57	1966.89
1164.71	1981.79
1162.85	1941.32
1160.99	1955.05
1159.13	1982.42
1157.27	1964.53
1155.41	1968.32
1153.55	1987.47
1151.69	1984.16
1149.83	1981.47
1147.97	1992.53
1146.1	2014.79
1144.24	1987.95
1142.38	1974.95
1140.51	1964.95
1138.65	1973.84
1136.78	1959.53
1134.92	1975.53
1133.05	1978.84
1131.18	1988.11
1129.32	1967.26
1127.45	1987.74
1125.58	1976.95
1123.71	1953.05
1121.85	1993.32
1119.98	1976.89
1118.11	1974.21
1116.24	1978.42
1114.37	1979.21
1112.5	1972.21
1110.62	1977.53
1108.75	1987.05
1106.88	1970.58
1105.01	1998.11
1103.13	2004.16
1101.26	2009.21
1099.39	1997
1097.51	2000.21
1095.64	2028.58
1093.76	2022.58
1091.89	2031.16
1090.01	2029.42
1088.13	2065.58
1086.25	2037.74
1084.38	2040.74
1082.5	2046.79
1080.62	2079.74
1078.74	2071.05
1076.86	2083.63
1074.98	2063.21
1073.1	2074.95
1071.22	2081
1069.34	2072.68
1067.45	2109.95
1065.57	2084.68
1063.69	2089.89
1061.81	2065.79
1059.92	2101.58
1058.04	2071.79
1056.15	2073.53
1054.27	2094.05
1052.38	2087.42
1050.5	2089.95
1048.61	2099.63
1046.72	2113.95
1044.83	2100.47
1042.95	2122.05
1041.06	2091.58
1039.17	2111.63
1037.28	2127.37
1035.39	2106.58
1033.5	2132.68
1031.61	2133.53
1029.72	2125.84
1027.82	2119.89
1025.93	2125.11
1024.04	2132.79
1022.15	2101.63
1020.25	2131.26
1018.36	2127.68
1016.46	2120.79
1014.57	2134.21
1012.67	2151.79
1010.78	2165.63
1008.88	2138.53
1006.99	2147.95
1005.09	2151.26
1003.19	2157.47
1001.29	2161.68
999.393	2167.58
997.494	2162.05
995.595	2176
993.694	2180.37
991.793	2180.16
989.893	2182.58
987.991	2195.79
986.089	2198.63
984.186	2215.79
982.284	2209.47
980.38	2205.58
978.477	2218.53
976.572	2249.79
974.667	2226.74
972.762	2218.68
970.856	2231.68
968.95	2241.42
967.043	2242.68
965.136	2261.74
963.229	2289.84
961.32	2295.21
959.412	2306.68
957.503	2323.11
955.594	2307
953.683	2357.21
951.773	2336.89
949.862	2359.37
947.951	2358.32
946.039	2371.21
944.127	2354.32
942.214	2348.74
940.301	2361.26
938.387	2355.47
936.472	2348.74
934.558	2355.89
932.643	2374.11
930.727	2343.11
928.811	2357.74
926.895	2343.53
924.978	2377.63
923.06	2375.74
921.142	2387
919.224	2381.37
917.305	2408.53
915.386	2391.68
913.466	2408.89
911.545	2420.58
909.625	2435.16
907.703	2441.58
905.782	2455.53
903.859	2467.47
901.937	2467.58
900.014	2457.74
898.09	2463.74
896.166	2445.53
894.241	2477.05
892.316	2481
890.391	2458
888.465	2504.95
886.539	2469.47
884.612	2475.26
882.685	2500.63
880.756	2505.26
878.828	2482.84
876.899	2497.42
874.97	2519.05
873.04	2522.53
871.11	2518.26
869.179	2540.26
867.248	2535.05
865.316	2524.79
863.384	2547.32
861.452	2547.63
859.519	2555.21
857.585	2553.63
855.651	2567.11
853.717	2613.84
851.782	2584.89
849.846	2611.32
847.91	2621.26
845.974	2637.37
844.037	2635.58
842.099	2677.9
840.162	2670.63
838.224	2675
836.284	2666.89
834.345	2671.79
832.406	2681.47
830.466	2682.37
828.525	2674
826.584	2683.79
824.642	2695.37
822.7	2676.74
820.757	2700.05
818.815	2669.21
816.871	2710.84
814.927	2673.32
812.982	2695.58
811.037	2724.79
809.092	2705.95
807.146	2738.95
805.2	2749
803.253	2762.74
801.306	2721.89
799.358	2761.84
797.41	2725.89
795.46	2780
793.511	2764.32
791.562	2738.1
789.611	2800.63
787.66	2779.37
785.709	2751.37
783.758	2769.84
781.806	2794
779.853	2786.11
777.9	2777.53
775.946	2760.74
773.992	2797.84
772.038	2752.79
770.083	2792.74
768.127	2743.95
766.171	2769.79
764.215	2774.11
762.258	2776.68
760.3	2742.16
758.342	2762.21
756.385	2759.21
754.425	2744.16
752.466	2770.63
750.506	2781.42
748.546	2793
746.586	2783.58
744.624	2811.47
742.662	2792.21
740.7	2821.47
738.737	2808.58
736.774	2827.84
734.81	2826.21
732.846	2838.05
730.881	2835.9
728.916	2853.16
726.951	2857
724.984	2866.89
723.018	2858.42
721.051	2858.74
719.084	2846.42
717.116	2885.63
715.147	2875.58
713.178	2880.47
711.209	2894.79
709.239	2867.68
707.268	2885.68
705.297	2897.95
703.327	2907.21
701.354	2913.47
699.382	2918.21
697.409	2908.11
695.436	2892.84
693.462	2875.63
691.488	2902.32
689.513	2902.63
687.538	2923.47
685.562	2904.53
683.586	2883.16
681.609	2916.84
679.632	2902.32
677.654	2934.32
675.676	2920.32
673.698	2917.16
671.718	2950.11
669.739	2942.42
667.759	2954.42
665.778	2955.21
663.797	2970.95
661.815	2968.11
659.834	2988.95
657.851	3025.42
655.868	3017.47
653.884	3013.37
651.9	3019.26
649.916	3044.53
647.931	3032.95
645.946	3061.37
643.959	3063.47
641.973	3091.42
639.986	3089.16
637.999	3082.68
636.011	3127.47
634.023	3103.42
632.034	3108.74
630.044	3143.05
628.054	3144.74
626.064	3147.53
624.073	3161.84
622.082	3161.26
620.09	3177.37
618.098	3200.63
616.105	3193.21
614.112	3218.95
612.118	3237.16
610.124	3240.84
608.129	3231.89
606.134	3276
604.138	3306.21
602.142	3258.79
600.145	3293.58
598.148	3297.21
596.151	3330.95
594.152	3308.89
592.154	3302.32
590.154	3312.05
588.155	3340.16
586.154	3299.05
584.154	3334.84
582.153	3327
580.152	3344.11
578.15	3352.58
576.147	3361.47
574.144	3402.95
572.141	3352.79
570.136	3398.68
568.132	3389.16
566.127	3389.42
564.121	3402.89
562.116	3437.42
560.109	3434.47
558.102	3426.95
556.094	3420.47
554.086	3438.79
552.078	3437.95
550.069	3438.63
548.06	3461.95
546.049	3464.26
544.039	3501.26
542.028	3483.37
540.017	3511.16
538.005	3513.63
535.993	3522.89
533.98	3529.58
531.966	3529.58
529.952	3567.68
527.938	3538.11
525.923	3568.79
523.907	3592.26
521.892	3626.05
519.876	3613.84
517.858	3650
515.841	3677.84
513.823	3675.26
511.805	3712.58
509.786	3759.84
507.767	3803.53
505.747	3836.79
503.727	3835.58
501.706	3901.26
499.684	3925.53
497.663	3969.26
495.64	3996.16
493.618	4046.74
491.594	4080.16
489.571	4046.84
487.547	4097.42
485.522	4091.05
483.497	4091.37
481.471	4103.58
479.445	4111
477.418	4088.63
475.391	4075.47
473.362	4070.68
471.334	4105.63
469.306	4111.1
467.276	4122.74
465.247	4127.32
463.216	4143.37
461.186	4158.79
459.154	4178.89
457.122	4175.21
455.091	4190.42
453.058	4197.79
451.025	4204.32
448.991	4218.53
446.957	4243.84
444.922	4230.53
442.887	4233.42
440.851	4250
438.814	4243.79
436.778	4289.84
434.741	4232.42
432.703	4288.31
430.665	4289.58
428.627	4249.16
426.587	4300.05
424.547	4306.53
422.507	4290.63
420.466	4323.84
418.425	4316.79
416.384	4333.37
414.341	4318.21
412.298	4319.58
410.256	4327.95
408.211	4363.53
406.167	4338.63
404.122	4357.68
402.078	4340.32
400.031	4341.21
397.986	4389.68
395.939	4369.53
393.892	4358
391.844	4369.89
389.796	4372.11
387.747	4356.42
385.698	4355.79
383.648	4322.21
381.597	4339.26
379.547	4316.53
377.495	4312.68
375.444	4316
373.392	4308
371.339	4278.11
369.286	4312.95
367.232	4273.21
365.178	4260.32
363.123	4226.74
361.068	4241.74
359.012	4198.05
356.956	4215.89
354.898	4230.95
352.841	4206.68
350.783	4189.95
348.726	4203.53
346.666	4179.68
344.607	4184.21
342.548	4172.9
340.487	4199.32
338.426	4211.68
336.365	4204.42
334.303	4227.84
332.241	4224.05
330.178	4221.63
328.115	4220.79
326.05	4245.47
323.986	4203.21
321.922	4252.95
319.856	4259.05
317.79	4276.16
315.724	4267.89
313.657	4260.47
311.59	4279.47
309.522	4270.1
307.454	4272.68
305.385	4297.74
303.315	4316.11
301.245	4297.42
299.175	4321.37
297.104	4315.05
295.032	4343.53
292.96	4356.84
290.888	4348.47
288.815	4364.74
286.741	4359.32
284.668	4402.42
282.593	4440.1
280.518	4453.26
278.443	4476.84
276.367	4519.26
274.29	4535.11
272.213	4583.1
270.135	4631.37
268.058	4661.95
265.979	4692.05
263.9	4769.89
261.82	4808.26
259.74	4827.26
257.66	4855.1
255.578	4901.21
253.497	4957
251.415	5018.26
249.331	5040.1
247.248	5131.84
245.165	5151.47
243.081	5217.37
240.997	5269.37
238.911	5317.69
236.826	5339.63
234.739	5414.9
232.653	5437.53
230.565	5512
228.477	5564.05
226.389	5612.05
224.3	5652.1
222.211	5704.21
220.121	5741.1
218.031	5784.26
215.94	5832.16
213.848	5875.95
211.757	5922
209.664	5972.11
207.572	6021.95
205.479	6077.47
203.384	6138.84
201.29	6187.68
199.195	6216.42
197.1	6257.58
195.003	6313.37
192.907	6393
190.81	6441.63
188.712	6507.9
186.615	6602.26
184.516	6676.89
182.417	6736.32
180.317	6815.32
178.217	6940.79
176.117	7034.05
174.016	7102.16
171.914	7182.95
169.812	7265.26
167.71	7319.95
165.606	7406.05
163.503	7519.42
161.398	7549.47
159.293	7602.68
157.188	7626.68
155.083	7658.84
152.976	7716.11
150.87	7740.37
148.763	7766.95
146.655	7770.32
144.546	7786.11
142.438	7829
140.328	7870.37
138.218	7932.1
136.108	7952.68
133.997	8056.74
131.886	8109.63
129.773	8237.58
127.661	8296.58
125.548	8428.58
123.435	8503.63
121.321	8615.05
119.207	8685.16
117.091	8753.79
114.975	8839.32
112.86	8879.95
110.743	8980.1
108.626	9070.84
106.508	9110.05
104.39	9138.16
102.272	9211.1
100.152	9212.47
98.0327	9265.95
95.9117	9227
93.791	9112.68
91.6705	8949.79
89.5484	8518.42
87.4255	7817.32
85.3029	6871.21
